#Conducti output file:
#Contains all results produced by conducti utility
#  
# npts,omin,omax,width     =    1000   0.00000   5.00000   0.07312 Ha
# rprimd(bohr)      =   7.38796   0.00000   0.00000
#                       0.00000   7.38796   0.00000
#                       0.00000   0.00000   7.38796
# natom             =       4
# nkpt,mband,nsppol        =       1      20       1
# ecut                  =  10.00000 Ha
# fermie            =   0.23742 Ha    6.46057 eV
# Temp              =     0.00367 Ha   1160.44026 Kelvin
# Number of electrons           =        12.00000
# sumrule           =         1.21951
# Emax-Efermi       =   0.25925 Ha   7.05444 eV
# 
# hbar*omega(eV) cond(ohm.cm)-1 thermal cond(W/m/K)   thermopower(microohm/K) 
     0.00000    6.722674362720E+03    7.481918879758E-03    3.421244644349E-01
     0.13620    7.186759486951E+03    7.749805143471E-03    3.421244998022E-01
     0.27239    7.670989444116E+03    8.031180987625E-03    3.421245309553E-01
     0.40858    8.169944470878E+03    8.326870738346E-03    3.421245572270E-01
     0.54478    8.675999915279E+03    8.637738857572E-03    3.421245779125E-01
     0.68097    9.179095926895E+03    8.964684053937E-03    3.421245922823E-01
     0.81716    9.666696563581E+03    9.308638946674E-03    3.421245995967E-01
     0.95335    1.012404129782E+04    9.670579590189E-03    3.421245991182E-01
     1.08955    1.053477939907E+04    1.005154844461E-02    3.421245901218E-01
     1.22574    1.088202828651E+04    1.045269241540E-02    3.421245718986E-01
     1.36193    1.114980677386E+04    1.087531458570E-02    3.421245437499E-01
     1.49813    1.132467745468E+04    1.132093484966E-02    3.421245049674E-01
     1.63432    1.139732562070E+04    1.179135150478E-02    3.421244547978E-01
     1.77051    1.136375382598E+04    1.228869467484E-02    3.421243923927E-01
     1.90671    1.122581876861E+04    1.281546380031E-02    3.421243167484E-01
     2.04290    1.099098014174E+04    1.337454550658E-02    3.421242266413E-01
     2.17909    1.067132297949E+04    1.396921364830E-02    3.421241205675E-01
     2.31529    1.028208357343E+04    1.460311800913E-02    3.421239966896E-01
     2.45148    9.839994445681E+03    1.528027059682E-02    3.421238527949E-01
     2.58767    9.361748171793E+03    1.600503798715E-02    3.421236862610E-01
     2.72386    8.862788933445E+03    1.678214565531E-02    3.421234940259E-01
     2.86006    8.356522366018E+03    1.761669676182E-02    3.421232725572E-01
     2.99625    7.853931444118E+03    1.851420497338E-02    3.421230178147E-01
     3.13244    7.363521373298E+03    1.948063871269E-02    3.421227252044E-01
     3.26864    6.891491552061E+03    2.052247327757E-02    3.421223895196E-01
     3.40483    6.442037067931E+03    2.164674685158E-02    3.421220048697E-01
     3.54102    6.017702136517E+03    2.286111627226E-02    3.421215645945E-01
     3.67722    5.619732187674E+03    2.417390813016E-02    3.421210611668E-01
     3.81341    5.248393201338E+03    2.559416003876E-02    3.421204860815E-01
     3.94960    4.903243566616E+03    2.713164554086E-02    3.421198297363E-01
     4.08580    4.583354878962E+03    2.879687410110E-02    3.421190813041E-01
     4.22199    4.287484627083E+03    3.060105451462E-02    3.421182286053E-01
     4.35818    4.014206934205E+03    3.255600622832E-02    3.421172579851E-01
     4.49438    3.762008585822E+03    3.467399787869E-02    3.421161542101E-01
     4.63057    3.529357405588E+03    3.696748620087E-02    3.421149004000E-01
     4.76676    3.314749254345E+03    3.944872134390E-02    3.421134780210E-01
     4.90295    3.116738912189E+03    4.212917698875E-02    3.421118669743E-01
     5.03915    2.933959079353E+03    4.501875684936E-02    3.421100458271E-01
     5.17534    2.765130807474E+03    4.812472502175E-02    3.421079922445E-01
     5.31153    2.609067891079E+03    5.145030999031E-02    3.421056836963E-01
     5.44773    2.464677115152E+03    5.499294616994E-02    3.421030985194E-01
     5.58392    2.330955755813E+03    5.874215034060E-02    3.421002174186E-01
     5.72011    2.206987347250E+03    6.267709208513E-02    3.420970254689E-01
     5.85631    2.091936437835E+03    6.676401589197E-02    3.420935146344E-01
     5.99250    1.985042842137E+03    7.095381093224E-02    3.420896867273E-01
     6.12869    1.885615736550E+03    7.518019252370E-02    3.420855565853E-01
     6.26489    1.793027830653E+03    7.935912342656E-02    3.420811550577E-01
     6.40108    1.706709763388E+03    8.339019848216E-02    3.420765311843E-01
     6.53727    1.626144814149E+03    8.716065008695E-02    3.420717528026E-01
     6.67347    1.550863977471E+03    9.055231103536E-02    3.420669048232E-01
     6.80966    1.480441421362E+03    9.345125674864E-02    3.420620846789E-01
     6.94585    1.414490329815E+03    9.575902585898E-02    3.420573950230E-01
     7.08204    1.352659117257E+03    9.740353075247E-02    3.420529345292E-01
     7.21824    1.294627994873E+03    9.834736618673E-02    3.420487884033E-01
     7.35443    1.240105864522E+03    9.859149503750E-02    3.420450206088E-01
     7.49062    1.188827514599E+03    9.817327460963E-02    3.420416696057E-01
     7.62682    1.140551092443E+03    9.715918911316E-02    3.420387485852E-01
     7.76301    1.095055829240E+03    9.563396297337E-02    3.420362500323E-01
     7.89920    1.052139994907E+03    9.368848313398E-02    3.420341533610E-01
     8.03540    1.011619061939E+03    9.140896722792E-02    3.420324337048E-01
     8.17159    9.733240585189E+02    8.886920237934E-02    3.420310698210E-01
     8.30778    9.371000922967E+02    8.612674840014E-02    3.420300494503E-01
     8.44398    9.028050273766E+02    8.322305039539E-02    3.420293711688E-01
     8.58017    8.703082981263E+02    8.018663921032E-02    3.420290426243E-01
     8.71636    8.394898446307E+02    7.703811373010E-02    3.420290758789E-01
     8.85255    8.102391559033E+02    7.379544041824E-02    3.420294812306E-01
     8.98875    7.824544084177E+02    7.047827899537E-02    3.420302611748E-01
     9.12494    7.560416890989E+02    6.711049662434E-02    3.420314060031E-01
     9.26113    7.309142935049E+02    6.372063434419E-02    3.420328919642E-01
     9.39733    7.069920913973E+02    6.034065261507E-02    3.420346821314E-01
     9.53352    6.842009530868E+02    5.700364194455E-02    3.420367294210E-01
     9.66971    6.624722307898E+02    5.374126838031E-02    3.420389807984E-01
     9.80591    6.417422898009E+02    5.058157495681E-02    3.420413816633E-01
     9.94210    6.219520846634E+02    4.754749343152E-02    3.420438796401E-01
    10.07829    6.030467758417E+02    4.465615448313E-02    3.420464273435E-01
    10.21449    5.849753827211E+02    4.191889403814E-02    3.420489840229E-01
    10.35068    5.676904691221E+02    3.934175938527E-02    3.420515162142E-01
    10.48687    5.511478578945E+02    3.692630407519E-02    3.420539976389E-01
    10.62307    5.353063715400E+02    3.467049362182E-02    3.420564086116E-01
    10.75926    5.201275961678E+02    3.256959551837E-02    3.420587351845E-01
    10.89545    5.055756664113E+02    3.061697769810E-02    3.420609681970E-01
    11.03164    4.916170692147E+02    2.880477989906E-02    3.420631023456E-01
    11.16784    4.782204646418E+02    2.712445010531E-02    3.420651353399E-01
    11.30403    4.653565220667E+02    2.556715476804E-02    3.420670671728E-01
    11.44022    4.529977702851E+02    2.412407968732E-02    3.420688995153E-01
    11.57642    4.411184602414E+02    2.278664110232E-02    3.420706352272E-01
    11.71261    4.296944391987E+02    2.154662597724E-02    3.420722779725E-01
    11.84880    4.187030353024E+02    2.039627829256E-02    3.420738319220E-01
    11.98500    4.081229515877E+02    1.932834537418E-02    3.420753015295E-01
    12.12119    3.979341685803E+02    1.833609550569E-02    3.420766913649E-01
    12.25738    3.881178547185E+02    1.741331555187E-02    3.420780059937E-01
    12.39358    3.786562839032E+02    1.655429520391E-02    3.420792498923E-01
    12.52977    3.695327595457E+02    1.575380273748E-02    3.420804273892E-01
    12.66596    3.607315445474E+02    1.500705583327E-02    3.420815426276E-01
    12.80216    3.522377966942E+02    1.430968997495E-02    3.420825995426E-01
    12.93835    3.440375090036E+02    1.365772616943E-02    3.420836018498E-01
    13.07454    3.361174545985E+02    1.304753915964E-02    3.420845530418E-01
    13.21073    3.284651357276E+02    1.247582688568E-02    3.420854563898E-01
    13.34693    3.210687365842E+02    1.193958164954E-02    3.420863149504E-01
    13.48312    3.139170796069E+02    1.143606323350E-02    3.420871315732E-01
    13.61931    3.069995849767E+02    1.096277407079E-02    3.420879089118E-01
    13.75551    3.003062330479E+02    1.051743647472E-02    3.420886494343E-01
    13.89170    2.938275294773E+02    1.009797186543E-02    3.420893554349E-01
    14.02789    2.875544728326E+02    9.702481894212E-03    3.420900290452E-01
    14.16409    2.814785244849E+02    9.329231345087E-03    3.420906722454E-01
    14.30028    2.755915806044E+02    8.976632679171E-03    3.420912868752E-01
    14.43647    2.698859460936E+02    8.643232087103E-03    3.420918746439E-01
    14.57267    2.643543103101E+02    8.327696915591E-03    3.420924371402E-01
    14.70886    2.589897244393E+02    8.028804341572E-03    3.420929758412E-01
    14.84505    2.537855803923E+02    7.745431173057E-03    3.420934921211E-01
    14.98124    2.487355911139E+02    7.476544665919E-03    3.420939872584E-01
    15.11744    2.438337721938E+02    7.221194254875E-03    3.420944624443E-01
    15.25363    2.390744246860E+02    6.978504104197E-03    3.420949187881E-01
    15.38982    2.344521190454E+02    6.747666395516E-03    3.420953573244E-01
    15.52602    2.299616801017E+02    6.527935274371E-03    3.420957790180E-01
    15.66221    2.255981729940E+02    6.318621388540E-03    3.420961847695E-01
    15.79840    2.213568899983E+02    6.119086955487E-03    3.420965754194E-01
    15.93460    2.172333381827E+02    5.928741304567E-03    3.420969517530E-01
    16.07079    2.132232278338E+02    5.747036844698E-03    3.420973145034E-01
    16.20698    2.093224615984E+02    5.573465414832E-03    3.420976643553E-01
    16.34318    2.055271242914E+02    5.407554978347E-03    3.420980019482E-01
    16.47937    2.018334733245E+02    5.248866629525E-03    3.420983278788E-01
    16.61556    1.982379297125E+02    5.096991882399E-03    3.420986427044E-01
    16.75176    1.947370696184E+02    4.951550217310E-03    3.420989469451E-01
    16.88795    1.913276164008E+02    4.812186862320E-03    3.420992410871E-01
    17.02414    1.880064331306E+02    4.678570787795E-03    3.420995255856E-01
    17.16033    1.847705155446E+02    4.550392891815E-03    3.420998008680E-01
    17.29653    1.816169854090E+02    4.427364353575E-03    3.421000673378E-01
    17.43272    1.785430842640E+02    4.309215130854E-03    3.421003253773E-01
    17.56891    1.755461675259E+02    4.195692577972E-03    3.421005753508E-01
    17.70511    1.726236989228E+02    4.086560165780E-03    3.421008176066E-01
    17.84130    1.697732452426E+02    3.981596289007E-03    3.421010524787E-01
    17.97749    1.669924713745E+02    3.880593154593E-03    3.421012802871E-01
    18.11369    1.642791356240E+02    3.783355748063E-03    3.421015013382E-01
    18.24988    1.616310852858E+02    3.689700879293E-03    3.421017159244E-01
    18.38607    1.590462524585E+02    3.599456306985E-03    3.421019243239E-01
    18.52227    1.565226500852E+02    3.512459940795E-03    3.421021268002E-01
    18.65846    1.540583682085E+02    3.428559116075E-03    3.421023236029E-01
    18.79465    1.516515704248E+02    3.347609935446E-03    3.421025149675E-01
    18.93084    1.493004905265E+02    3.269476669315E-03    3.421027011160E-01
    19.06704    1.470034293212E+02    3.194031208549E-03    3.421028822580E-01
    19.20323    1.447587516173E+02    3.121152562365E-03    3.421030585912E-01
    19.33942    1.425648833657E+02    3.050726396168E-03    3.421032303026E-01
    19.47562    1.404203089483E+02    2.982644604494E-03    3.421033975687E-01
    19.61181    1.383235686061E+02    2.916804915551E-03    3.421035605569E-01
    19.74800    1.362732559967E+02    2.853110524119E-03    3.421037194261E-01
    19.88420    1.342680158760E+02    2.791469750503E-03    3.421038743268E-01
    20.02039    1.323065418951E+02    2.731795723304E-03    3.421040254024E-01
    20.15658    1.303875745071E+02    2.674006084190E-03    3.421041727892E-01
    20.29278    1.285098989776E+02    2.618022712873E-03    3.421043166173E-01
    20.42897    1.266723434922E+02    2.563771471073E-03    3.421044570105E-01
    20.56516    1.248737773563E+02    2.511181963857E-03    3.421045940871E-01
    20.70136    1.231131092826E+02    2.460187317090E-03    3.421047279600E-01
    20.83755    1.213892857603E+02    2.410723969942E-03    3.421048587372E-01
    20.97374    1.197012895022E+02    2.362731481224E-03    3.421049865219E-01
    21.10993    1.180481379661E+02    2.316152348776E-03    3.421051114129E-01
    21.24613    1.164288819453E+02    2.270931840450E-03    3.421052335047E-01
    21.38232    1.148426042251E+02    2.227017836720E-03    3.421053528880E-01
    21.51851    1.132884183023E+02    2.184360682949E-03    3.421054696494E-01
    21.65471    1.117654671635E+02    2.142913051703E-03    3.421055838722E-01
    21.79090    1.102729221195E+02    2.102629813577E-03    3.421056956361E-01
    21.92709    1.088099816936E+02    2.063467916462E-03    3.421058050178E-01
    22.06329    1.073758705589E+02    2.025386272242E-03    3.421059120907E-01
    22.19948    1.059698385252E+02    1.988345650768E-03    3.421060169253E-01
    22.33567    1.045911595699E+02    1.952308580340E-03    3.421061195895E-01
    22.47187    1.032391309131E+02    1.917239254297E-03    3.421062201483E-01
    22.60806    1.019130721328E+02    1.883103443303E-03    3.421063186644E-01
    22.74425    1.006123243193E+02    1.849868413096E-03    3.421064151979E-01
    22.88045    9.933624926693E+01    1.817502847018E-03    3.421065098068E-01
    23.01664    9.808422870042E+01    1.785976773167E-03    3.421066025467E-01
    23.15283    9.685566353477E+01    1.755261496139E-03    3.421066934713E-01
    23.28902    9.564997316704E+01    1.725329532290E-03    3.421067826323E-01
    23.42522    9.446659479829E+01    1.696154549214E-03    3.421068700793E-01
    23.56141    9.330498278424E+01    1.667711308419E-03    3.421069558603E-01
    23.69760    9.216460801335E+01    1.639975611597E-03    3.421070400214E-01
    23.83380    9.104495731100E+01    1.612924249499E-03    3.421071226073E-01
    23.96999    8.994553286844E+01    1.586534954188E-03    3.421072036607E-01
    24.10618    8.886585169548E+01    1.560786353592E-03    3.421072832232E-01
    24.24238    8.780544509563E+01    1.535657928777E-03    3.421073613347E-01
    24.37857    8.676385816285E+01    1.511129973514E-03    3.421074380338E-01
    24.51476    8.574064929874E+01    1.487183556002E-03    3.421075133577E-01
    24.65096    8.473538974927E+01    1.463800482844E-03    3.421075873424E-01
    24.78715    8.374766316020E+01    1.440963264775E-03    3.421076600226E-01
    24.92334    8.277706515030E+01    1.418655084217E-03    3.421077314319E-01
    25.05953    8.182320290158E+01    1.396859764838E-03    3.421078016027E-01
    25.19573    8.088569476569E+01    1.375561742323E-03    3.421078705665E-01
    25.33192    7.996416988590E+01    1.354746036971E-03    3.421079383535E-01
    25.46811    7.905826783382E+01    1.334398227530E-03    3.421080049931E-01
    25.60431    7.816763826035E+01    1.314504426534E-03    3.421080705137E-01
    25.74050    7.729194056005E+01    1.295051256791E-03    3.421081349428E-01
    25.87669    7.643084354856E+01    1.276025829027E-03    3.421081983069E-01
    26.01289    7.558402515228E+01    1.257415720909E-03    3.421082606319E-01
    26.14908    7.475117210995E+01    1.239208956743E-03    3.421083219426E-01
    26.28527    7.393197968555E+01    1.221393988551E-03    3.421083822632E-01
    26.42147    7.312615139193E+01    1.203959677748E-03    3.421084416171E-01
    26.55766    7.233339872499E+01    1.186895278023E-03    3.421085000270E-01
    26.69385    7.155344090759E+01    1.170190418828E-03    3.421085575150E-01
    26.83005    7.078600464310E+01    1.153835089833E-03    3.421086141022E-01
    26.96624    7.003082387801E+01    1.137819625929E-03    3.421086698095E-01
    27.10243    6.928763957326E+01    1.122134693173E-03    3.421087246569E-01
    27.23862    6.855619948393E+01    1.106771275239E-03    3.421087786638E-01
    27.37482    6.783625794697E+01    1.091720660597E-03    3.421088318491E-01
    27.51101    6.712757567659E+01    1.076974430223E-03    3.421088842311E-01
    27.64720    6.642991956699E+01    1.062524445891E-03    3.421089358277E-01
    27.78340    6.574306250224E+01    1.048362839105E-03    3.421089866562E-01
    27.91959    6.506678317283E+01    1.034482000399E-03    3.421090367333E-01
    28.05578    6.440086589884E+01    1.020874569240E-03    3.421090860752E-01
    28.19198    6.374510045924E+01    1.007533424260E-03    3.421091346980E-01
    28.32817    6.309928192726E+01    9.944516741143E-04    3.421091826170E-01
    28.46436    6.246321051151E+01    9.816226485135E-04    3.421092298470E-01
    28.60056    6.183669140259E+01    9.690398898857E-04    3.421092764028E-01
    28.73675    6.121953462500E+01    9.566971452663E-04    3.421093222984E-01
    28.87294    6.061155489423E+01    9.445883585760E-04    3.421093675475E-01
    29.00914    6.001257147864E+01    9.327076632484E-04    3.421094121637E-01
    29.14533    5.942240806613E+01    9.210493751333E-04    3.421094561599E-01
    29.28152    5.884089263532E+01    9.096079858041E-04    3.421094995487E-01
    29.41771    5.826785733105E+01    8.983781560598E-04    3.421095423425E-01
    29.55391    5.770313834410E+01    8.873547097046E-04    3.421095845533E-01
    29.69010    5.714657579491E+01    8.765326276983E-04    3.421096261928E-01
    29.82629    5.659801362122E+01    8.659070423697E-04    3.421096672723E-01
    29.96249    5.605729946935E+01    8.554732320794E-04    3.421097078031E-01
    30.09868    5.552428458919E+01    8.452266159569E-04    3.421097477957E-01
    30.23487    5.499882373248E+01    8.351627488472E-04    3.421097872608E-01
    30.37107    5.448077505460E+01    8.252773166393E-04    3.421098262086E-01
    30.50726    5.397000001939E+01    8.155661315993E-04    3.421098646491E-01
    30.64345    5.346636330715E+01    8.060251278913E-04    3.421099025920E-01
    30.77965    5.296973272557E+01    7.966503575219E-04    3.421099400468E-01
    30.91584    5.247997912358E+01    7.874379860948E-04    3.421099770228E-01
    31.05203    5.199697630783E+01    7.783842890142E-04    3.421100135290E-01
    31.18822    5.152060096194E+01    7.694856477315E-04    3.421100495741E-01
    31.32442    5.105073256829E+01    7.607385461008E-04    3.421100851668E-01
    31.46061    5.058725333221E+01    7.521395669873E-04    3.421101203155E-01
    31.59680    5.013004810862E+01    7.436853888808E-04    3.421101550282E-01
    31.73300    4.967900433095E+01    7.353727827740E-04    3.421101893130E-01
    31.86919    4.923401194224E+01    7.271986090227E-04    3.421102231777E-01
    32.00538    4.879496332839E+01    7.191598144495E-04    3.421102566298E-01
    32.14158    4.836175325349E+01    7.112534294877E-04    3.421102896767E-01
    32.27777    4.793427879711E+01    7.034765654758E-04    3.421103223258E-01
    32.41396    4.751243929355E+01    6.958264119336E-04    3.421103545840E-01
    32.55016    4.709613627283E+01    6.883002342057E-04    3.421103864584E-01
    32.68635    4.668527340363E+01    6.808953708671E-04    3.421104179555E-01
    32.82254    4.627975643783E+01    6.736092314639E-04    3.421104490820E-01
    32.95874    4.587949315675E+01    6.664392942501E-04    3.421104798444E-01
