 #calculated the component:  1  2  3
 #tolerance:    2.000000E-03
 #broadening:    2.000000E-03Ha
 #scissors shift:    0.000000E+00Ha
 #energy window:    3.982501E+01eV    1.463542E+00Ha
 # Energy(eV)  |TotChi(-w,w,0)|   |Tot Chi(-w,w,0)|
 # eV          *10^-7 esu        *10^-12 m/V SI units 
 # 
       0.008163   1.701243E+00   7.126148E+01
       0.016327   1.707689E+00   7.153149E+01
       0.024490   1.714181E+00   7.180343E+01
       0.032654   1.720719E+00   7.207731E+01
       0.040817   1.727304E+00   7.235316E+01
       0.048980   1.733937E+00   7.263100E+01
       0.057144   1.740618E+00   7.291084E+01
       0.065307   1.747347E+00   7.319271E+01
       0.073471   1.754125E+00   7.347664E+01
       0.081634   1.760953E+00   7.376263E+01
       0.089798   1.767831E+00   7.405073E+01
       0.097961   1.774759E+00   7.434094E+01
       0.106124   1.781739E+00   7.463330E+01
       0.114288   1.788770E+00   7.492783E+01
       0.122451   1.795854E+00   7.522454E+01
       0.130615   1.802990E+00   7.552347E+01
       0.138778   1.810180E+00   7.582464E+01
       0.146941   1.817424E+00   7.612807E+01
       0.155105   1.824722E+00   7.643379E+01
       0.163268   1.832076E+00   7.674183E+01
       0.171432   1.839486E+00   7.705221E+01
       0.179595   1.846952E+00   7.736496E+01
       0.187759   1.854476E+00   7.768011E+01
       0.195922   1.862057E+00   7.799767E+01
       0.204085   1.869697E+00   7.831769E+01
       0.212249   1.877396E+00   7.864019E+01
       0.220412   1.885155E+00   7.896519E+01
       0.228576   1.892975E+00   7.929274E+01
       0.236739   1.900855E+00   7.962285E+01
       0.244902   1.908798E+00   7.995555E+01
       0.253066   1.916804E+00   8.029088E+01
       0.261229   1.924873E+00   8.062887E+01
       0.269393   1.933006E+00   8.096956E+01
       0.277556   1.941204E+00   8.131296E+01
       0.285720   1.949468E+00   8.165912E+01
       0.293883   1.957798E+00   8.200806E+01
       0.302046   1.966196E+00   8.235983E+01
       0.310210   1.974662E+00   8.271445E+01
       0.318373   1.983197E+00   8.307196E+01
       0.326537   1.991802E+00   8.343240E+01
       0.334700   2.000477E+00   8.379580E+01
       0.342863   2.009224E+00   8.416220E+01
       0.351027   2.018044E+00   8.453163E+01
       0.359190   2.026937E+00   8.490413E+01
       0.367354   2.035904E+00   8.527975E+01
       0.375517   2.044946E+00   8.565852E+01
       0.383681   2.054065E+00   8.604047E+01
       0.391844   2.063261E+00   8.642566E+01
       0.400007   2.072534E+00   8.681412E+01
       0.408171   2.081887E+00   8.720589E+01
       0.416334   2.091320E+00   8.760102E+01
       0.424498   2.100834E+00   8.799954E+01
       0.432661   2.110431E+00   8.840151E+01
       0.440824   2.120110E+00   8.880697E+01
       0.448988   2.129874E+00   8.921596E+01
       0.457151   2.139724E+00   8.962853E+01
       0.465315   2.149659E+00   9.004472E+01
       0.473478   2.159683E+00   9.046459E+01
       0.481641   2.169796E+00   9.088819E+01
       0.489805   2.179998E+00   9.131556E+01
       0.497968   2.190292E+00   9.174675E+01
       0.506132   2.200679E+00   9.218181E+01
       0.514295   2.211159E+00   9.262081E+01
       0.522459   2.221734E+00   9.306378E+01
       0.530622   2.232406E+00   9.351079E+01
       0.538785   2.243175E+00   9.396190E+01
       0.546949   2.254043E+00   9.441715E+01
       0.555112   2.265012E+00   9.487660E+01
       0.563276   2.276083E+00   9.534032E+01
       0.571439   2.287256E+00   9.580837E+01
       0.579602   2.298535E+00   9.628080E+01
       0.587766   2.309919E+00   9.675767E+01
       0.595929   2.321411E+00   9.723906E+01
       0.604093   2.333013E+00   9.772502E+01
       0.612256   2.344725E+00   9.821562E+01
       0.620420   2.356550E+00   9.871092E+01
       0.628583   2.368488E+00   9.921100E+01
       0.636746   2.380543E+00   9.971593E+01
       0.644910   2.392714E+00   1.002258E+02
       0.653073   2.405005E+00   1.007406E+02
       0.661237   2.417416E+00   1.012605E+02
       0.669400   2.429951E+00   1.017855E+02
       0.677563   2.442609E+00   1.023158E+02
       0.685727   2.455394E+00   1.028513E+02
       0.693890   2.468308E+00   1.033922E+02
       0.702054   2.481351E+00   1.039386E+02
       0.710217   2.494527E+00   1.044905E+02
       0.718381   2.507837E+00   1.050480E+02
       0.726544   2.521283E+00   1.056113E+02
       0.734707   2.534868E+00   1.061803E+02
       0.742871   2.548594E+00   1.067552E+02
       0.751034   2.562462E+00   1.073361E+02
       0.759198   2.576475E+00   1.079231E+02
       0.767361   2.590636E+00   1.085163E+02
       0.775524   2.604946E+00   1.091157E+02
       0.783688   2.619408E+00   1.097215E+02
       0.791851   2.634026E+00   1.103338E+02
       0.800015   2.648800E+00   1.109527E+02
       0.808178   2.663734E+00   1.115782E+02
       0.816342   2.678830E+00   1.122106E+02
       0.824505   2.694091E+00   1.128498E+02
       0.832668   2.709519E+00   1.134961E+02
       0.840832   2.725119E+00   1.141495E+02
       0.848995   2.740891E+00   1.148102E+02
       0.857159   2.756840E+00   1.154783E+02
       0.865322   2.772968E+00   1.161538E+02
       0.873485   2.789279E+00   1.168370E+02
       0.881649   2.805775E+00   1.175280E+02
       0.889812   2.822460E+00   1.182269E+02
       0.897976   2.839337E+00   1.189339E+02
       0.906139   2.856409E+00   1.196490E+02
       0.914302   2.873680E+00   1.203724E+02
       0.922466   2.891154E+00   1.211044E+02
       0.930629   2.908833E+00   1.218449E+02
       0.938793   2.926722E+00   1.225942E+02
       0.946956   2.944825E+00   1.233525E+02
       0.955120   2.963145E+00   1.241199E+02
       0.963283   2.981686E+00   1.248966E+02
       0.971446   3.000452E+00   1.256827E+02
       0.979610   3.019449E+00   1.264784E+02
       0.987773   3.038679E+00   1.272839E+02
       0.995937   3.058147E+00   1.280994E+02
       1.004100   3.077858E+00   1.289250E+02
       1.012263   3.097817E+00   1.297610E+02
       1.020427   3.118027E+00   1.306076E+02
       1.028590   3.138495E+00   1.314650E+02
       1.036754   3.159225E+00   1.323333E+02
       1.044917   3.180222E+00   1.332128E+02
       1.053081   3.201491E+00   1.341037E+02
       1.061244   3.223038E+00   1.350063E+02
       1.069407   3.244868E+00   1.359207E+02
       1.077571   3.266988E+00   1.368473E+02
       1.085734   3.289402E+00   1.377861E+02
       1.093898   3.312117E+00   1.387376E+02
       1.102061   3.335139E+00   1.397020E+02
       1.110224   3.358475E+00   1.406795E+02
       1.118388   3.382130E+00   1.416703E+02
       1.126551   3.406113E+00   1.426749E+02
       1.134715   3.430428E+00   1.436934E+02
       1.142878   3.455085E+00   1.447263E+02
       1.151042   3.480089E+00   1.457736E+02
       1.159205   3.505449E+00   1.468359E+02
       1.167368   3.531172E+00   1.479134E+02
       1.175532   3.557266E+00   1.490064E+02
       1.183695   3.583740E+00   1.501153E+02
       1.191859   3.610601E+00   1.512405E+02
       1.200022   3.637859E+00   1.523823E+02
       1.208185   3.665522E+00   1.535410E+02
       1.216349   3.693600E+00   1.547172E+02
       1.224512   3.722102E+00   1.559110E+02
       1.232676   3.751038E+00   1.571231E+02
       1.240839   3.780418E+00   1.583538E+02
       1.249003   3.810253E+00   1.596035E+02
       1.257166   3.840553E+00   1.608727E+02
       1.265329   3.871330E+00   1.621619E+02
       1.273493   3.902594E+00   1.634715E+02
       1.281656   3.934358E+00   1.648020E+02
       1.289820   3.966634E+00   1.661540E+02
       1.297983   3.999435E+00   1.675279E+02
       1.306146   4.032773E+00   1.689244E+02
       1.314310   4.066663E+00   1.703440E+02
       1.322473   4.101117E+00   1.717872E+02
       1.330637   4.136151E+00   1.732547E+02
       1.338800   4.171779E+00   1.747471E+02
       1.346963   4.208017E+00   1.762650E+02
       1.355127   4.244881E+00   1.778092E+02
       1.363290   4.282387E+00   1.793802E+02
       1.371454   4.320553E+00   1.809789E+02
       1.379617   4.359396E+00   1.826059E+02
       1.387781   4.398934E+00   1.842621E+02
       1.395944   4.439186E+00   1.859482E+02
       1.404107   4.480173E+00   1.876651E+02
       1.412271   4.521915E+00   1.894135E+02
       1.420434   4.564433E+00   1.911945E+02
       1.428598   4.607748E+00   1.930089E+02
       1.436761   4.651885E+00   1.948577E+02
       1.444924   4.696866E+00   1.967419E+02
       1.453088   4.742716E+00   1.986624E+02
       1.461251   4.789461E+00   2.006205E+02
       1.469415   4.837128E+00   2.026171E+02
       1.477578   4.885744E+00   2.046536E+02
       1.485742   4.935338E+00   2.067310E+02
       1.493905   4.985940E+00   2.088506E+02
       1.502068   5.037581E+00   2.110137E+02
       1.510232   5.090294E+00   2.132217E+02
       1.518395   5.144113E+00   2.154761E+02
       1.526559   5.199072E+00   2.177782E+02
       1.534722   5.255209E+00   2.201297E+02
       1.542885   5.312563E+00   2.225321E+02
       1.551049   5.371172E+00   2.249871E+02
       1.559212   5.431079E+00   2.274965E+02
       1.567376   5.492328E+00   2.300621E+02
       1.575539   5.554963E+00   2.326858E+02
       1.583703   5.619034E+00   2.353695E+02
       1.591866   5.684589E+00   2.381155E+02
       1.600029   5.751680E+00   2.409258E+02
       1.608193   5.820363E+00   2.438028E+02
       1.616356   5.890695E+00   2.467489E+02
       1.624520   5.962735E+00   2.497664E+02
       1.632683   6.036545E+00   2.528582E+02
       1.640846   6.112193E+00   2.560269E+02
       1.649010   6.189746E+00   2.592755E+02
       1.657173   6.269278E+00   2.626069E+02
       1.665337   6.350864E+00   2.660244E+02
       1.673500   6.434585E+00   2.695313E+02
       1.681664   6.520524E+00   2.731311E+02
       1.689827   6.608771E+00   2.768275E+02
       1.697990   6.699417E+00   2.806245E+02
       1.706154   6.792562E+00   2.845262E+02
       1.714317   6.888309E+00   2.885368E+02
       1.722481   6.986766E+00   2.926610E+02
       1.730644   7.088049E+00   2.969035E+02
       1.738807   7.192280E+00   3.012695E+02
       1.746971   7.299587E+00   3.057644E+02
       1.755134   7.410105E+00   3.103938E+02
       1.763298   7.523979E+00   3.151637E+02
       1.771461   7.641360E+00   3.200805E+02
       1.779625   7.762410E+00   3.251511E+02
       1.787788   7.887299E+00   3.303824E+02
       1.795951   8.016209E+00   3.357822E+02
       1.804115   8.149332E+00   3.413584E+02
       1.812278   8.286874E+00   3.471198E+02
       1.820442   8.429051E+00   3.530753E+02
       1.828605   8.576096E+00   3.592347E+02
       1.836768   8.728256E+00   3.656083E+02
       1.844932   8.885793E+00   3.722072E+02
       1.853095   9.048989E+00   3.790432E+02
       1.861259   9.218144E+00   3.861287E+02
       1.869422   9.393580E+00   3.934774E+02
       1.877585   9.575639E+00   4.011034E+02
       1.885749   9.764690E+00   4.090224E+02
       1.893912   9.961128E+00   4.172508E+02
       1.902076   1.016538E+01   4.258063E+02
       1.910239   1.037789E+01   4.347081E+02
       1.918403   1.059916E+01   4.439767E+02
       1.926566   1.082972E+01   4.536342E+02
       1.934729   1.107013E+01   4.637044E+02
       1.942893   1.132101E+01   4.742132E+02
       1.951056   1.158302E+01   4.851883E+02
       1.959220   1.185688E+01   4.966599E+02
       1.967383   1.214338E+01   5.086606E+02
       1.975546   1.244335E+01   5.212259E+02
       1.983710   1.275773E+01   5.343944E+02
       1.991873   1.308750E+01   5.482079E+02
       2.000037   1.343376E+01   5.627121E+02
       2.008200   1.379771E+01   5.779571E+02
       2.016364   1.418064E+01   5.939973E+02
       2.024527   1.458398E+01   6.108925E+02
       2.032690   1.500930E+01   6.287082E+02
       2.040854   1.545832E+01   6.475166E+02
       2.049017   1.593293E+01   6.673970E+02
       2.057181   1.643522E+01   6.884370E+02
       2.065344   1.696751E+01   7.107332E+02
       2.073507   1.753234E+01   7.343929E+02
       2.081671   1.813256E+01   7.595350E+02
       2.089834   1.877134E+01   7.862919E+02
       2.097998   1.945218E+01   8.148109E+02
       2.106161   2.017902E+01   8.452570E+02
       2.114325   2.095629E+01   8.778148E+02
       2.122488   2.178891E+01   9.126918E+02
       2.130651   2.268248E+01   9.501214E+02
       2.138815   2.364328E+01   9.903675E+02
       2.146978   2.467846E+01   1.033729E+03
       2.155142   2.579610E+01   1.080545E+03
       2.163305   2.700544E+01   1.131201E+03
       2.171468   2.831704E+01   1.186141E+03
       2.179632   2.974299E+01   1.245871E+03
       2.187795   3.129724E+01   1.310976E+03
       2.195959   3.299588E+01   1.382128E+03
       2.204122   3.485760E+01   1.460112E+03
       2.212286   3.690416E+01   1.545838E+03
       2.220449   3.916099E+01   1.640372E+03
       2.228612   4.165800E+01   1.744966E+03
       2.236776   4.443044E+01   1.861098E+03
       2.244939   4.752014E+01   1.990519E+03
       2.253103   5.097691E+01   2.135316E+03
       2.261266   5.486037E+01   2.297986E+03
       2.269429   5.924227E+01   2.481534E+03
       2.277593   6.420933E+01   2.689594E+03
       2.285756   6.986696E+01   2.926581E+03
       2.293920   7.634380E+01   3.197882E+03
       2.302083   8.379755E+01   3.510103E+03
       2.310246   9.242219E+01   3.871372E+03
       2.318410   1.024569E+02   4.291703E+03
       2.326573   1.141965E+02   4.783450E+03
       2.334737   1.280035E+02   5.361800E+03
       2.342900   1.443203E+02   6.045273E+03
       2.351064   1.636772E+02   6.856092E+03
       2.359227   1.866911E+02   7.820100E+03
       2.367390   2.140383E+02   8.965614E+03
       2.375554   2.463734E+02   1.032007E+04
       2.383717   2.841509E+02   1.190248E+04
       2.391881   3.272817E+02   1.370914E+04
       2.400044   3.745761E+02   1.569021E+04
       2.408207   4.230274E+02   1.771973E+04
       2.416371   4.672894E+02   1.957377E+04
       2.424534   5.001043E+02   2.094832E+04
       2.432698   5.143908E+02   2.154675E+04
       2.440861   5.064578E+02   2.121446E+04
       2.449025   4.780764E+02   2.002562E+04
       2.457188   4.355184E+02   1.824295E+04
       2.465351   3.864440E+02   1.618733E+04
       2.473515   3.371527E+02   1.412262E+04
       2.481678   2.915346E+02   1.221177E+04
       2.489842   2.513483E+02   1.052845E+04
       2.498005   2.169569E+02   9.087871E+03
       2.506168   1.879894E+02   7.874481E+03
       2.514332   1.637749E+02   6.860188E+03
       2.522495   1.435814E+02   6.014326E+03
       2.530659   1.267266E+02   5.308312E+03
       2.538822   1.126191E+02   4.717378E+03
       2.546986   1.007654E+02   4.220851E+03
       2.555149   9.076178E+01   3.801821E+03
       2.563312   8.228125E+01   3.446589E+03
       2.571476   7.506014E+01   3.144112E+03
       2.579639   6.888599E+01   2.885489E+03
       2.587803   6.358731E+01   2.663539E+03
       2.595966   5.902538E+01   2.472449E+03
       2.604129   5.508754E+01   2.307501E+03
       2.612293   5.168201E+01   2.164851E+03
       2.620456   4.873376E+01   2.041355E+03
       2.628620   4.618121E+01   1.934434E+03
       2.636783   4.397377E+01   1.841969E+03
       2.644947   4.206977E+01   1.762215E+03
       2.653110   4.043493E+01   1.693734E+03
       2.661273   3.904108E+01   1.635349E+03
       2.669437   3.786522E+01   1.586095E+03
       2.677600   3.688873E+01   1.545192E+03
       2.685764   3.609682E+01   1.512020E+03
       2.693927   3.547801E+01   1.486100E+03
       2.702090   3.502392E+01   1.467078E+03
       2.710254   3.472891E+01   1.454721E+03
       2.718417   3.459007E+01   1.448906E+03
       2.726581   3.460711E+01   1.449619E+03
       2.734744   3.478245E+01   1.456964E+03
       2.742907   3.512131E+01   1.471158E+03
       2.751071   3.563203E+01   1.492551E+03
       2.759234   3.632639E+01   1.521636E+03
       2.767398   3.722011E+01   1.559072E+03
       2.775561   3.833354E+01   1.605712E+03
       2.783725   3.969256E+01   1.662638E+03
       2.791888   4.132969E+01   1.731214E+03
       2.800051   4.328557E+01   1.813142E+03
       2.808215   4.561089E+01   1.910544E+03
       2.816378   4.836869E+01   2.026063E+03
       2.824542   5.163743E+01   2.162983E+03
       2.832705   5.551455E+01   2.325388E+03
       2.840868   6.012087E+01   2.518337E+03
       2.849032   6.560539E+01   2.748072E+03
       2.857195   7.214986E+01   3.022206E+03
       2.865359   7.997173E+01   3.349848E+03
       2.873522   8.932185E+01   3.741505E+03
       2.881686   1.004702E+02   4.208486E+03
       2.889849   1.136673E+02   4.761283E+03
       2.898012   1.290609E+02   5.406091E+03
       2.906176   1.465426E+02   6.138362E+03
       2.914339   1.655071E+02   6.932744E+03
       2.922503   1.845672E+02   7.731135E+03
       2.930666   2.013995E+02   8.436203E+03
       2.938829   2.130439E+02   8.923960E+03
       2.946993   2.168771E+02   9.084526E+03
       2.955156   2.118785E+02   8.875147E+03
       2.963320   1.992183E+02   8.344836E+03
       2.971483   1.816154E+02   7.607487E+03
       2.979647   1.620541E+02   6.788107E+03
       2.987810   1.428285E+02   5.982786E+03
       2.995973   1.252717E+02   5.247370E+03
       3.004137   1.099333E+02   4.604876E+03
       3.012300   9.687504E+01   4.057892E+03
       3.020464   8.591385E+01   3.598751E+03
       3.028627   7.677444E+01   3.215920E+03
       3.036790   6.916999E+01   2.897386E+03
       3.044954   6.283848E+01   2.632172E+03
       3.053117   5.755512E+01   2.410863E+03
       3.061281   5.313333E+01   2.225644E+03
       3.069444   4.942091E+01   2.070138E+03
       3.077608   4.629477E+01   1.939191E+03
       3.085771   4.365577E+01   1.828648E+03
       3.093934   4.142401E+01   1.735165E+03
       3.102098   3.953509E+01   1.656042E+03
       3.110261   3.793686E+01   1.589096E+03
       3.118425   3.658706E+01   1.532555E+03
       3.126588   3.545125E+01   1.484978E+03
       3.134751   3.450133E+01   1.445188E+03
       3.142915   3.371428E+01   1.412220E+03
       3.151078   3.307123E+01   1.385284E+03
       3.159242   3.255668E+01   1.363731E+03
       3.167405   3.215792E+01   1.347028E+03
       3.175568   3.186457E+01   1.334740E+03
       3.183732   3.166816E+01   1.326513E+03
       3.191895   3.156187E+01   1.322061E+03
       3.200059   3.154032E+01   1.321158E+03
       3.208222   3.159933E+01   1.323630E+03
       3.216386   3.173580E+01   1.329346E+03
       3.224549   3.194761E+01   1.338218E+03
       3.232712   3.223354E+01   1.350196E+03
       3.240876   3.259321E+01   1.365261E+03
       3.249039   3.302704E+01   1.383433E+03
       3.257203   3.353621E+01   1.404762E+03
       3.265366   3.412274E+01   1.429330E+03
       3.273529   3.478943E+01   1.457256E+03
       3.281693   3.553993E+01   1.488693E+03
       3.289856   3.637882E+01   1.523832E+03
       3.298020   3.731167E+01   1.562908E+03
       3.306183   3.834515E+01   1.606198E+03
       3.314347   3.948717E+01   1.654035E+03
       3.322510   4.074701E+01   1.706807E+03
       3.330673   4.213560E+01   1.764972E+03
       3.338837   4.366571E+01   1.829065E+03
       3.347000   4.535226E+01   1.899711E+03
       3.355164   4.721274E+01   1.977643E+03
       3.363327   4.926764E+01   2.063718E+03
       3.371490   5.154104E+01   2.158946E+03
       3.379654   5.406131E+01   2.264515E+03
       3.387817   5.686199E+01   2.381829E+03
       3.395981   5.998288E+01   2.512557E+03
       3.404144   6.347143E+01   2.658685E+03
       3.412308   6.738440E+01   2.822591E+03
       3.420471   7.179003E+01   3.007134E+03
       3.428634   7.677075E+01   3.215766E+03
       3.436798   8.242655E+01   3.452675E+03
       3.444961   8.887928E+01   3.722967E+03
       3.453125   9.627798E+01   4.032883E+03
       3.461288   1.048055E+02   4.390082E+03
       3.469451   1.146865E+02   4.803978E+03
       3.477615   1.261970E+02   5.286129E+03
       3.485778   1.396745E+02   5.850674E+03
       3.493942   1.555278E+02   6.514733E+03
