 #calculated the component:  1  2  3
 #tolerance:    2.000000E-03
 #broadening:    2.000000E-03Ha
 #scissors shift:    0.000000E+00Ha
 #energy window:    3.982501E+01eV    1.463542E+00Ha
 # Energy(eV) Chi(w) Eta(w) Sigma(w)
 # in esu
 # 
       0.008163   1.084648E-02   2.399804E-02   7.987003E-03
       0.016327   1.093421E-02   2.417186E-02   8.030323E-03
       0.024490   1.102267E-02   2.434776E-02   8.074059E-03
       0.032654   1.111187E-02   2.452579E-02   8.118216E-03
       0.040817   1.120180E-02   2.470598E-02   8.162800E-03
       0.048980   1.129248E-02   2.488836E-02   8.207817E-03
       0.057144   1.138392E-02   2.507297E-02   8.253274E-03
       0.065307   1.147611E-02   2.525984E-02   8.299175E-03
       0.073471   1.156907E-02   2.544902E-02   8.345527E-03
       0.081634   1.166280E-02   2.564054E-02   8.392337E-03
       0.089798   1.175731E-02   2.583445E-02   8.439611E-03
       0.097961   1.185261E-02   2.603077E-02   8.487355E-03
       0.106124   1.194870E-02   2.622956E-02   8.535576E-03
       0.114288   1.204560E-02   2.643085E-02   8.584281E-03
       0.122451   1.214329E-02   2.663469E-02   8.633476E-03
       0.130615   1.224181E-02   2.684112E-02   8.683168E-03
       0.138778   1.234114E-02   2.705019E-02   8.733365E-03
       0.146941   1.244130E-02   2.726193E-02   8.784074E-03
       0.155105   1.254230E-02   2.747641E-02   8.835302E-03
       0.163268   1.264414E-02   2.769366E-02   8.887056E-03
       0.171432   1.274683E-02   2.791373E-02   8.939345E-03
       0.179595   1.285037E-02   2.813667E-02   8.992176E-03
       0.187759   1.295478E-02   2.836253E-02   9.045556E-03
       0.195922   1.306006E-02   2.859137E-02   9.099495E-03
       0.204085   1.316622E-02   2.882324E-02   9.153999E-03
       0.212249   1.327327E-02   2.905819E-02   9.209078E-03
       0.220412   1.338121E-02   2.929627E-02   9.264740E-03
       0.228576   1.349005E-02   2.953754E-02   9.320994E-03
       0.236739   1.359980E-02   2.978207E-02   9.377848E-03
       0.244902   1.371047E-02   3.002990E-02   9.435311E-03
       0.253066   1.382206E-02   3.028109E-02   9.493393E-03
       0.261229   1.393459E-02   3.053572E-02   9.552103E-03
       0.269393   1.404805E-02   3.079384E-02   9.611450E-03
       0.277556   1.416246E-02   3.105551E-02   9.671445E-03
       0.285720   1.427783E-02   3.132081E-02   9.732096E-03
       0.293883   1.439416E-02   3.158979E-02   9.793415E-03
       0.302046   1.451146E-02   3.186253E-02   9.855410E-03
       0.310210   1.462974E-02   3.213910E-02   9.918094E-03
       0.318373   1.474901E-02   3.241957E-02   9.981476E-03
       0.326537   1.486928E-02   3.270400E-02   1.004557E-02
       0.334700   1.499055E-02   3.299249E-02   1.011038E-02
       0.342863   1.511282E-02   3.328509E-02   1.017592E-02
       0.351027   1.523612E-02   3.358190E-02   1.024221E-02
       0.359190   1.536045E-02   3.388299E-02   1.030925E-02
       0.367354   1.548581E-02   3.418845E-02   1.037706E-02
       0.375517   1.561222E-02   3.449835E-02   1.044565E-02
       0.383681   1.573968E-02   3.481279E-02   1.051503E-02
       0.391844   1.586820E-02   3.513184E-02   1.058521E-02
       0.400007   1.599779E-02   3.545562E-02   1.065621E-02
       0.408171   1.612845E-02   3.578419E-02   1.072804E-02
       0.416334   1.626020E-02   3.611767E-02   1.080072E-02
       0.424498   1.639305E-02   3.645614E-02   1.087425E-02
       0.432661   1.652700E-02   3.679971E-02   1.094866E-02
       0.440824   1.666206E-02   3.714847E-02   1.102395E-02
       0.448988   1.679823E-02   3.750254E-02   1.110014E-02
       0.457151   1.693554E-02   3.786201E-02   1.117725E-02
       0.465315   1.707398E-02   3.822700E-02   1.125529E-02
       0.473478   1.721356E-02   3.859762E-02   1.133428E-02
       0.481641   1.735430E-02   3.897398E-02   1.141423E-02
       0.489805   1.749620E-02   3.935620E-02   1.149516E-02
       0.497968   1.763926E-02   3.974441E-02   1.157709E-02
       0.506132   1.778350E-02   4.013871E-02   1.166003E-02
       0.514295   1.792893E-02   4.053925E-02   1.174399E-02
       0.522459   1.807556E-02   4.094615E-02   1.182901E-02
       0.530622   1.822338E-02   4.135954E-02   1.191509E-02
       0.538785   1.837241E-02   4.177956E-02   1.200226E-02
       0.546949   1.852267E-02   4.220635E-02   1.209053E-02
       0.555112   1.867414E-02   4.264005E-02   1.217992E-02
       0.563276   1.882686E-02   4.308081E-02   1.227045E-02
       0.571439   1.898081E-02   4.352879E-02   1.236215E-02
       0.579602   1.913602E-02   4.398413E-02   1.245503E-02
       0.587766   1.929248E-02   4.444699E-02   1.254911E-02
       0.595929   1.945021E-02   4.491754E-02   1.264442E-02
       0.604093   1.960921E-02   4.539595E-02   1.274098E-02
       0.612256   1.976950E-02   4.588238E-02   1.283880E-02
       0.620420   1.993107E-02   4.637701E-02   1.293792E-02
       0.628583   2.009394E-02   4.688003E-02   1.303836E-02
       0.636746   2.025811E-02   4.739162E-02   1.314013E-02
       0.644910   2.042359E-02   4.791197E-02   1.324327E-02
       0.653073   2.059039E-02   4.844127E-02   1.334781E-02
       0.661237   2.075852E-02   4.897974E-02   1.345375E-02
       0.669400   2.092797E-02   4.952756E-02   1.356114E-02
       0.677563   2.109877E-02   5.008497E-02   1.367001E-02
       0.685727   2.127091E-02   5.065217E-02   1.378036E-02
       0.693890   2.144439E-02   5.122939E-02   1.389225E-02
       0.702054   2.161924E-02   5.181686E-02   1.400568E-02
       0.710217   2.179544E-02   5.241482E-02   1.412071E-02
       0.718381   2.197302E-02   5.302351E-02   1.423734E-02
       0.726544   2.215197E-02   5.364318E-02   1.435562E-02
       0.734707   2.233229E-02   5.427409E-02   1.447558E-02
       0.742871   2.251400E-02   5.491651E-02   1.459725E-02
       0.751034   2.269710E-02   5.557070E-02   1.472066E-02
       0.759198   2.288159E-02   5.623696E-02   1.484585E-02
       0.767361   2.306748E-02   5.691555E-02   1.497285E-02
       0.775524   2.325476E-02   5.760680E-02   1.510170E-02
       0.783688   2.344346E-02   5.831099E-02   1.523244E-02
       0.791851   2.363355E-02   5.902844E-02   1.536509E-02
       0.800015   2.382506E-02   5.975948E-02   1.549971E-02
       0.808178   2.401798E-02   6.050445E-02   1.563633E-02
       0.816342   2.421231E-02   6.126367E-02   1.577499E-02
       0.824505   2.440806E-02   6.203752E-02   1.591574E-02
       0.832668   2.460522E-02   6.282634E-02   1.605861E-02
       0.840832   2.480380E-02   6.363053E-02   1.620365E-02
       0.848995   2.500380E-02   6.445045E-02   1.635090E-02
       0.857159   2.520521E-02   6.528652E-02   1.650042E-02
       0.865322   2.540803E-02   6.613915E-02   1.665224E-02
       0.873485   2.561227E-02   6.700874E-02   1.680642E-02
       0.881649   2.581792E-02   6.789576E-02   1.696301E-02
       0.889812   2.602498E-02   6.880063E-02   1.712206E-02
       0.897976   2.623344E-02   6.972383E-02   1.728361E-02
       0.906139   2.644331E-02   7.066583E-02   1.744773E-02
       0.914302   2.665456E-02   7.162714E-02   1.761447E-02
       0.922466   2.686721E-02   7.260825E-02   1.778388E-02
       0.930629   2.708124E-02   7.360970E-02   1.795603E-02
       0.938793   2.729664E-02   7.463202E-02   1.813097E-02
       0.946956   2.751341E-02   7.567578E-02   1.830877E-02
       0.955120   2.773153E-02   7.674156E-02   1.848949E-02
       0.963283   2.795100E-02   7.782995E-02   1.867319E-02
       0.971446   2.817181E-02   7.894157E-02   1.885995E-02
       0.979610   2.839393E-02   8.007705E-02   1.904982E-02
       0.987773   2.861737E-02   8.123707E-02   1.924289E-02
       0.995937   2.884209E-02   8.242229E-02   1.943922E-02
       1.004100   2.906810E-02   8.363342E-02   1.963888E-02
       1.012263   2.929536E-02   8.487119E-02   1.984197E-02
       1.020427   2.952387E-02   8.613635E-02   2.004854E-02
       1.028590   2.975359E-02   8.742967E-02   2.025869E-02
       1.036754   2.998451E-02   8.875197E-02   2.047251E-02
       1.044917   3.021661E-02   9.010407E-02   2.069006E-02
       1.053081   3.044985E-02   9.148684E-02   2.091145E-02
       1.061244   3.068422E-02   9.290116E-02   2.113677E-02
       1.069407   3.091968E-02   9.434797E-02   2.136611E-02
       1.077571   3.115621E-02   9.582820E-02   2.159956E-02
       1.085734   3.139376E-02   9.734287E-02   2.183724E-02
       1.093898   3.163231E-02   9.889298E-02   2.207923E-02
       1.102061   3.187181E-02   1.004796E-01   2.232565E-02
       1.110224   3.211224E-02   1.021038E-01   2.257660E-02
       1.118388   3.235354E-02   1.037668E-01   2.283220E-02
       1.126551   3.259567E-02   1.054698E-01   2.309256E-02
       1.134715   3.283858E-02   1.072138E-01   2.335781E-02
       1.142878   3.308224E-02   1.090004E-01   2.362807E-02
       1.151042   3.332657E-02   1.108306E-01   2.390346E-02
       1.159205   3.357153E-02   1.127060E-01   2.418412E-02
       1.167368   3.381705E-02   1.146280E-01   2.447018E-02
       1.175532   3.406308E-02   1.165979E-01   2.476179E-02
       1.183695   3.430955E-02   1.186174E-01   2.505908E-02
       1.191859   3.455639E-02   1.206881E-01   2.536221E-02
       1.200022   3.480352E-02   1.228115E-01   2.567133E-02
       1.208185   3.505087E-02   1.249895E-01   2.598660E-02
       1.216349   3.529835E-02   1.272237E-01   2.630819E-02
       1.224512   3.554588E-02   1.295161E-01   2.663626E-02
       1.232676   3.579336E-02   1.318686E-01   2.697100E-02
       1.240839   3.604071E-02   1.342832E-01   2.731258E-02
       1.249003   3.628781E-02   1.367620E-01   2.766119E-02
       1.257166   3.653457E-02   1.393071E-01   2.801704E-02
       1.265329   3.678086E-02   1.419209E-01   2.838031E-02
       1.273493   3.702658E-02   1.446056E-01   2.875121E-02
       1.281656   3.727158E-02   1.473638E-01   2.912998E-02
       1.289820   3.751576E-02   1.501980E-01   2.951682E-02
       1.297983   3.775895E-02   1.531108E-01   2.991197E-02
       1.306146   3.800103E-02   1.561051E-01   3.031567E-02
       1.314310   3.824183E-02   1.591838E-01   3.072816E-02
       1.322473   3.848119E-02   1.623498E-01   3.114971E-02
       1.330637   3.871894E-02   1.656064E-01   3.158059E-02
       1.338800   3.895491E-02   1.689567E-01   3.202106E-02
       1.346963   3.918890E-02   1.724044E-01   3.247142E-02
       1.355127   3.942072E-02   1.759529E-01   3.293197E-02
       1.363290   3.965016E-02   1.796060E-01   3.340301E-02
       1.371454   3.987699E-02   1.833677E-01   3.388487E-02
       1.379617   4.010099E-02   1.872420E-01   3.437787E-02
       1.387781   4.032191E-02   1.912333E-01   3.488237E-02
       1.395944   4.053950E-02   1.953460E-01   3.539873E-02
       1.404107   4.075349E-02   1.995849E-01   3.592732E-02
       1.412271   4.096359E-02   2.039548E-01   3.646852E-02
       1.420434   4.116950E-02   2.084609E-01   3.702275E-02
       1.428598   4.137092E-02   2.131086E-01   3.759042E-02
       1.436761   4.156751E-02   2.179036E-01   3.817197E-02
       1.444924   4.175891E-02   2.228519E-01   3.876785E-02
       1.453088   4.194477E-02   2.279595E-01   3.937855E-02
       1.461251   4.212471E-02   2.332331E-01   4.000456E-02
       1.469415   4.229830E-02   2.386796E-01   4.064638E-02
       1.477578   4.246512E-02   2.443061E-01   4.130456E-02
       1.485742   4.262473E-02   2.501202E-01   4.197965E-02
       1.493905   4.277665E-02   2.561299E-01   4.267225E-02
       1.502068   4.292037E-02   2.623435E-01   4.338295E-02
       1.510232   4.305537E-02   2.687698E-01   4.411239E-02
       1.518395   4.318110E-02   2.754182E-01   4.486124E-02
       1.526559   4.329696E-02   2.822982E-01   4.563019E-02
       1.534722   4.340234E-02   2.894203E-01   4.641997E-02
       1.542885   4.349658E-02   2.967952E-01   4.723132E-02
       1.551049   4.357900E-02   3.044344E-01   4.806504E-02
       1.559212   4.364887E-02   3.123499E-01   4.892197E-02
       1.567376   4.370543E-02   3.205545E-01   4.980296E-02
       1.575539   4.374787E-02   3.290614E-01   5.070892E-02
       1.583703   4.377532E-02   3.378850E-01   5.164080E-02
       1.591866   4.378690E-02   3.470402E-01   5.259960E-02
       1.600029   4.378164E-02   3.565429E-01   5.358636E-02
       1.608193   4.375855E-02   3.664098E-01   5.460219E-02
       1.616356   4.371655E-02   3.766588E-01   5.564821E-02
       1.624520   4.365452E-02   3.873085E-01   5.672565E-02
       1.632683   4.357126E-02   3.983791E-01   5.783576E-02
       1.640846   4.346553E-02   4.098916E-01   5.897989E-02
       1.649010   4.333598E-02   4.218684E-01   6.015942E-02
       1.657173   4.318120E-02   4.343335E-01   6.137584E-02
       1.665337   4.299969E-02   4.473121E-01   6.263068E-02
       1.673500   4.278988E-02   4.608312E-01   6.392559E-02
       1.681664   4.255007E-02   4.749195E-01   6.526227E-02
       1.689827   4.227848E-02   4.896074E-01   6.664254E-02
       1.697990   4.197323E-02   5.049274E-01   6.806832E-02
       1.706154   4.163231E-02   5.209142E-01   6.954161E-02
       1.714317   4.125357E-02   5.376046E-01   7.106455E-02
       1.722481   4.083476E-02   5.550383E-01   7.263939E-02
       1.730644   4.037347E-02   5.732573E-01   7.426850E-02
       1.738807   3.986714E-02   5.923066E-01   7.595440E-02
       1.746971   3.931303E-02   6.122345E-01   7.769975E-02
       1.755134   3.870825E-02   6.330927E-01   7.950738E-02
       1.763298   3.804971E-02   6.549363E-01   8.138027E-02
       1.771461   3.733412E-02   6.778248E-01   8.332159E-02
       1.779625   3.655795E-02   7.018219E-01   8.533472E-02
       1.787788   3.571747E-02   7.269959E-01   8.742323E-02
       1.795951   3.480867E-02   7.534205E-01   8.959091E-02
       1.804115   3.382726E-02   7.811748E-01   9.184182E-02
       1.812278   3.276870E-02   8.103441E-01   9.418025E-02
       1.820442   3.162807E-02   8.410205E-01   9.661080E-02
       1.828605   3.040014E-02   8.733033E-01   9.913834E-02
       1.836768   2.907932E-02   9.072996E-01   1.017681E-01
       1.844932   2.765957E-02   9.431254E-01   1.045057E-01
       1.853095   2.613446E-02   9.809065E-01   1.073570E-01
       1.861259   2.449704E-02   1.020779E+00   1.103285E-01
       1.869422   2.273988E-02   1.062890E+00   1.134269E-01
       1.877585   2.085496E-02   1.107401E+00   1.166596E-01
       1.885749   1.883366E-02   1.154486E+00   1.200344E-01
       1.893912   1.666670E-02   1.204334E+00   1.235598E-01
       1.902076   1.434405E-02   1.257153E+00   1.272449E-01
       1.910239   1.185490E-02   1.313169E+00   1.310993E-01
       1.918403   9.187549E-03   1.372629E+00   1.351337E-01
       1.926566   6.329366E-03   1.435803E+00   1.393595E-01
       1.934729   3.266657E-03   1.502987E+00   1.437887E-01
       1.942893  -1.542136E-05   1.574507E+00   1.484348E-01
       1.951056  -3.532975E-03   1.650719E+00   1.533120E-01
       1.959220  -7.303507E-03   1.732017E+00   1.584360E-01
       1.967383  -1.134605E-02   1.818834E+00   1.638235E-01
       1.975546  -1.568136E-02   1.911648E+00   1.694931E-01
       1.983710  -2.033203E-02   2.010990E+00   1.754646E-01
       1.991873  -2.532278E-02   2.117445E+00   1.817598E-01
       2.000037  -3.068062E-02   2.231664E+00   1.884025E-01
       2.008200  -3.643514E-02   2.354370E+00   1.954186E-01
       2.016364  -4.261880E-02   2.486369E+00   2.028367E-01
       2.024527  -4.926724E-02   2.628560E+00   2.106880E-01
       2.032690  -5.641970E-02   2.781948E+00   2.190066E-01
       2.040854  -6.411943E-02   2.947660E+00   2.278304E-01
       2.049017  -7.241417E-02   3.126961E+00   2.372009E-01
       2.057181  -8.135673E-02   3.321274E+00   2.471641E-01
       2.065344  -9.100566E-02   3.532205E+00   2.577709E-01
       2.073507  -1.014259E-01   3.761569E+00   2.690776E-01
       2.081671  -1.126899E-01   4.011425E+00   2.811470E-01
       2.089834  -1.248781E-01   4.284110E+00   2.940488E-01
       2.097998  -1.380808E-01   4.582288E+00   3.078611E-01
       2.106161  -1.523987E-01   4.909002E+00   3.226709E-01
       2.114325  -1.679454E-01   5.267740E+00   3.385762E-01
       2.122488  -1.848482E-01   5.662508E+00   3.556870E-01
       2.130651  -2.032511E-01   6.097925E+00   3.741272E-01
       2.138815  -2.233169E-01   6.579330E+00   3.940373E-01
       2.146978  -2.452306E-01   7.112921E+00   4.155762E-01
       2.155142  -2.692024E-01   7.705909E+00   4.389248E-01
       2.163305  -2.954725E-01   8.366722E+00   4.642897E-01
       2.171468  -3.243159E-01   9.105242E+00   4.919071E-01
       2.179632  -3.560487E-01   9.933105E+00   5.220484E-01
       2.187795  -3.910356E-01   1.086406E+01   5.550265E-01
       2.195959  -4.296984E-01   1.191444E+01   5.912036E-01
       2.204122  -4.725276E-01   1.310368E+01   6.310000E-01
       2.212286  -5.200953E-01   1.445509E+01   6.749063E-01
       2.220449  -5.730717E-01   1.599668E+01   7.234969E-01
       2.228612  -6.322456E-01   1.776232E+01   7.774475E-01
       2.236776  -6.985491E-01   1.979310E+01   8.375566E-01
       2.244939  -7.730894E-01   2.213920E+01   9.047722E-01
       2.253103  -8.571873E-01   2.486210E+01   9.802252E-01
       2.261266  -9.524272E-01   2.803755E+01   1.065272E+00
       2.269429  -1.060718E+00   3.175931E+01   1.161546E+00
       2.277593  -1.184373E+00   3.614388E+01   1.271026E+00
       2.285756  -1.326206E+00   4.133656E+01   1.396121E+00
       2.293920  -1.489662E+00   4.751912E+01   1.539777E+00
       2.302083  -1.678969E+00   5.491915E+01   1.705612E+00
       2.310246  -1.899341E+00   6.382134E+01   1.898086E+00
       2.318410  -2.157223E+00   7.458016E+01   2.122710E+00
       2.326573  -2.460581E+00   8.763229E+01   2.386298E+00
       2.334737  -2.819241E+00   1.035048E+02   2.697253E+00
       2.342900  -3.245231E+00   1.228099E+02   3.065863E+00
       2.351064  -3.753050E+00   1.462071E+02   3.504525E+00
       2.359227  -4.359664E+00   1.742959E+02   4.027749E+00
       2.367390  -5.083844E+00   2.073702E+02   4.651586E+00
       2.375554  -5.944098E+00   2.449242E+02   5.391865E+00
       2.383717  -6.953952E+00   2.847628E+02   6.260152E+00
       2.391881  -8.112819E+00   3.216325E+02   7.255948E+00
       2.400044  -9.390950E+00   3.456609E+02   8.353818E+00
       2.408207  -1.070982E+01   3.418974E+02   9.486626E+00
       2.416371  -1.192723E+01   2.936755E+02   1.053278E+01
       2.424534  -1.284746E+01   1.921452E+02   1.132495E+01
       2.432698  -1.327645E+01   4.825984E+01   1.169719E+01
       2.440861  -1.310855E+01  -1.053253E+02   1.155919E+01
       2.449025  -1.238458E+01  -2.304872E+02   1.094584E+01
       2.457188  -1.126856E+01  -3.050850E+02   9.997395E+00
       2.465351  -9.965156E+00  -3.297023E+02   8.888845E+00
       2.473515  -8.644995E+00  -3.186387E+02   7.766094E+00
       2.481678  -7.415106E+00  -2.882252E+02   6.720655E+00
       2.489842  -6.325272E+00  -2.506918E+02   5.795101E+00
       2.498005  -5.387317E+00  -2.132310E+02   4.999541E+00
       2.506168  -4.592767E+00  -1.792686E+02   4.326735E+00
       2.514332  -3.924611E+00  -1.499800E+02   3.762143E+00
       2.522495  -3.363827E+00  -1.253910E+02   3.289500E+00
       2.530659  -2.892477E+00  -1.050312E+02   2.893475E+00
       2.538822  -2.494904E+00  -8.827565E+01   2.560684E+00
       2.546986  -2.157973E+00  -7.450452E+01   2.279899E+00
       2.555149  -1.870893E+00  -6.316743E+01   2.041897E+00
       2.563312  -1.624894E+00  -5.380093E+01   1.839186E+00
       2.571476  -1.412885E+00  -4.602554E+01   1.665704E+00
       2.579639  -1.229134E+00  -3.953511E+01   1.516555E+00
       2.587803  -1.069002E+00  -3.408433E+01   1.387777E+00
       2.595966  -9.287275E-01  -2.947712E+01   1.276159E+00
       2.604129  -8.052476E-01  -2.555665E+01   1.179084E+00
       2.612293  -6.960597E-01  -2.219707E+01   1.094419E+00
       2.620456  -5.991117E-01  -1.929700E+01   1.020414E+00
       2.628620  -5.127150E-01  -1.677428E+01   9.556276E-01
       2.636783  -4.354764E-01  -1.456187E+01   8.988746E-01
