 #calculated the component:  1  2  3
 #tolerance:    2.000000E-03
 #broadening:    2.000000E-03Ha
 #scissors shift:    0.000000E+00Ha
 #energy window:    3.982501E+01eV    1.463542E+00Ha
 # Energy      Tot-Im Chi(-w,w,0)  Tot-Im Chi(-w,w,0)
 # eV          *10^-7 esu        *10^-12 m/V SI units 
 # 
       0.008163   4.283152E-02   1.794123E+00
       0.016327   4.313639E-02   1.806893E+00
       0.024490   4.344450E-02   1.819799E+00
       0.032654   4.375588E-02   1.832842E+00
       0.040817   4.407058E-02   1.846024E+00
       0.048980   4.438866E-02   1.859348E+00
       0.057144   4.471016E-02   1.872815E+00
       0.065307   4.503513E-02   1.886427E+00
       0.073471   4.536362E-02   1.900187E+00
       0.081634   4.569568E-02   1.914096E+00
       0.089798   4.603137E-02   1.928158E+00
       0.097961   4.637074E-02   1.942373E+00
       0.106124   4.671384E-02   1.956745E+00
       0.114288   4.706073E-02   1.971275E+00
       0.122451   4.741146E-02   1.985967E+00
       0.130615   4.776610E-02   2.000822E+00
       0.138778   4.812469E-02   2.015842E+00
       0.146941   4.848731E-02   2.031032E+00
       0.155105   4.885401E-02   2.046392E+00
       0.163268   4.922485E-02   2.061926E+00
       0.171432   4.959990E-02   2.077636E+00
       0.179595   4.997922E-02   2.093525E+00
       0.187759   5.036287E-02   2.109595E+00
       0.195922   5.075093E-02   2.125850E+00
       0.204085   5.114346E-02   2.142292E+00
       0.212249   5.154053E-02   2.158925E+00
       0.220412   5.194222E-02   2.175751E+00
       0.228576   5.234859E-02   2.192773E+00
       0.236739   5.275972E-02   2.209994E+00
       0.244902   5.317568E-02   2.227418E+00
       0.253066   5.359655E-02   2.245047E+00
       0.261229   5.402241E-02   2.262885E+00
       0.269393   5.445334E-02   2.280936E+00
       0.277556   5.488942E-02   2.299203E+00
       0.285720   5.533074E-02   2.317688E+00
       0.293883   5.577737E-02   2.336397E+00
       0.302046   5.622941E-02   2.355332E+00
       0.310210   5.668694E-02   2.374497E+00
       0.318373   5.715006E-02   2.393896E+00
       0.326537   5.761885E-02   2.413533E+00
       0.334700   5.809341E-02   2.433411E+00
       0.342863   5.857384E-02   2.453535E+00
       0.351027   5.906023E-02   2.473909E+00
       0.359190   5.955269E-02   2.494537E+00
       0.367354   6.005132E-02   2.515424E+00
       0.375517   6.055621E-02   2.536573E+00
       0.383681   6.106749E-02   2.557989E+00
       0.391844   6.158525E-02   2.579677E+00
       0.400007   6.210961E-02   2.601641E+00
       0.408171   6.264069E-02   2.623887E+00
       0.416334   6.317859E-02   2.646419E+00
       0.424498   6.372344E-02   2.669241E+00
       0.432661   6.427537E-02   2.692360E+00
       0.440824   6.483448E-02   2.715780E+00
       0.448988   6.540092E-02   2.739507E+00
       0.457151   6.597480E-02   2.763546E+00
       0.465315   6.655628E-02   2.787903E+00
       0.473478   6.714546E-02   2.812583E+00
       0.481641   6.774251E-02   2.837592E+00
       0.489805   6.834756E-02   2.862936E+00
       0.497968   6.896076E-02   2.888621E+00
       0.506132   6.958224E-02   2.914654E+00
       0.514295   7.021218E-02   2.941041E+00
       0.522459   7.085071E-02   2.967788E+00
       0.530622   7.149801E-02   2.994902E+00
       0.538785   7.215423E-02   3.022389E+00
       0.546949   7.281954E-02   3.050258E+00
       0.555112   7.349411E-02   3.078514E+00
       0.563276   7.417812E-02   3.107166E+00
       0.571439   7.487175E-02   3.136221E+00
       0.579602   7.557517E-02   3.165685E+00
       0.587766   7.628858E-02   3.195569E+00
       0.595929   7.701217E-02   3.225878E+00
       0.604093   7.774614E-02   3.256623E+00
       0.612256   7.849068E-02   3.287810E+00
       0.620420   7.924601E-02   3.319449E+00
       0.628583   8.001233E-02   3.351549E+00
       0.636746   8.078986E-02   3.384118E+00
       0.644910   8.157884E-02   3.417166E+00
       0.653073   8.237947E-02   3.450703E+00
       0.661237   8.319201E-02   3.484739E+00
       0.669400   8.401668E-02   3.519283E+00
       0.677563   8.485374E-02   3.554345E+00
       0.685727   8.570344E-02   3.589937E+00
       0.693890   8.656603E-02   3.626069E+00
       0.702054   8.744178E-02   3.662753E+00
       0.710217   8.833097E-02   3.699999E+00
       0.718381   8.923387E-02   3.737820E+00
       0.726544   9.015077E-02   3.776227E+00
       0.734707   9.108197E-02   3.815233E+00
       0.742871   9.202776E-02   3.854850E+00
       0.751034   9.298847E-02   3.895092E+00
       0.759198   9.396440E-02   3.935971E+00
       0.767361   9.495588E-02   3.977503E+00
       0.775524   9.596326E-02   4.019700E+00
       0.783688   9.698688E-02   4.062577E+00
       0.791851   9.802709E-02   4.106149E+00
       0.800015   9.908425E-02   4.150432E+00
       0.808178   1.001588E-01   4.195440E+00
       0.816342   1.012510E-01   4.241191E+00
       0.824505   1.023613E-01   4.287701E+00
       0.832668   1.034902E-01   4.334986E+00
       0.840832   1.046380E-01   4.383065E+00
       0.848995   1.058052E-01   4.431956E+00
       0.857159   1.069922E-01   4.481677E+00
       0.865322   1.081994E-01   4.532247E+00
       0.873485   1.094274E-01   4.583686E+00
       0.881649   1.106767E-01   4.636014E+00
       0.889812   1.119477E-01   4.689253E+00
       0.897976   1.132409E-01   4.743423E+00
       0.906139   1.145569E-01   4.798547E+00
       0.914302   1.158962E-01   4.854647E+00
       0.922466   1.172593E-01   4.911748E+00
       0.930629   1.186470E-01   4.969872E+00
       0.938793   1.200596E-01   5.029046E+00
       0.946956   1.214980E-01   5.089295E+00
       0.955120   1.229626E-01   5.150644E+00
       0.963283   1.244541E-01   5.213123E+00
       0.971446   1.259733E-01   5.276758E+00
       0.979610   1.275208E-01   5.341579E+00
       0.987773   1.290973E-01   5.407616E+00
       0.995937   1.307036E-01   5.474900E+00
       1.004100   1.323404E-01   5.543462E+00
       1.012263   1.340085E-01   5.613336E+00
       1.020427   1.357088E-01   5.684555E+00
       1.028590   1.374420E-01   5.757155E+00
       1.036754   1.392090E-01   5.831172E+00
       1.044917   1.410107E-01   5.906644E+00
       1.053081   1.428481E-01   5.983609E+00
       1.061244   1.447222E-01   6.062107E+00
       1.069407   1.466338E-01   6.142180E+00
       1.077571   1.485840E-01   6.223871E+00
       1.085734   1.505739E-01   6.307223E+00
       1.093898   1.526045E-01   6.392283E+00
       1.102061   1.546771E-01   6.479098E+00
       1.110224   1.567927E-01   6.567716E+00
       1.118388   1.589526E-01   6.658189E+00
       1.126551   1.611580E-01   6.750570E+00
       1.134715   1.634102E-01   6.844912E+00
       1.142878   1.657107E-01   6.941272E+00
       1.151042   1.680607E-01   7.039708E+00
       1.159205   1.704617E-01   7.140282E+00
       1.167368   1.729152E-01   7.243055E+00
       1.175532   1.754228E-01   7.348092E+00
       1.183695   1.779861E-01   7.455462E+00
       1.191859   1.806067E-01   7.565234E+00
       1.200022   1.832864E-01   7.677481E+00
       1.208185   1.860269E-01   7.792278E+00
       1.216349   1.888303E-01   7.909703E+00
       1.224512   1.916983E-01   8.029838E+00
       1.232676   1.946330E-01   8.152768E+00
       1.240839   1.976365E-01   8.278579E+00
       1.249003   2.007110E-01   8.407363E+00
       1.257166   2.038587E-01   8.539215E+00
       1.265329   2.070821E-01   8.674233E+00
       1.273493   2.103834E-01   8.812520E+00
       1.281656   2.137654E-01   8.954183E+00
       1.289820   2.172306E-01   9.099333E+00
       1.297983   2.207818E-01   9.248085E+00
       1.306146   2.244218E-01   9.400560E+00
       1.314310   2.281538E-01   9.556883E+00
       1.322473   2.319807E-01   9.717185E+00
       1.330637   2.359059E-01   9.881603E+00
       1.338800   2.399327E-01   1.005028E+01
       1.346963   2.440647E-01   1.022336E+01
       1.355127   2.483056E-01   1.040100E+01
       1.363290   2.526592E-01   1.058336E+01
       1.371454   2.571296E-01   1.077062E+01
       1.379617   2.617209E-01   1.096294E+01
       1.387781   2.664376E-01   1.116051E+01
       1.395944   2.712843E-01   1.136353E+01
       1.404107   2.762657E-01   1.157219E+01
       1.412271   2.813869E-01   1.178671E+01
       1.420434   2.866531E-01   1.200730E+01
       1.428598   2.920700E-01   1.223420E+01
       1.436761   2.976431E-01   1.246765E+01
       1.444924   3.033786E-01   1.270789E+01
       1.453088   3.092828E-01   1.295521E+01
       1.461251   3.153624E-01   1.320987E+01
       1.469415   3.216243E-01   1.347217E+01
       1.477578   3.280758E-01   1.374241E+01
       1.485742   3.347246E-01   1.402091E+01
       1.493905   3.415788E-01   1.430802E+01
       1.502068   3.486468E-01   1.460408E+01
       1.510232   3.559376E-01   1.490948E+01
       1.518395   3.634605E-01   1.522460E+01
       1.526559   3.712254E-01   1.554985E+01
       1.534722   3.792426E-01   1.588568E+01
       1.542885   3.875231E-01   1.623253E+01
       1.551049   3.960785E-01   1.659090E+01
       1.559212   4.049208E-01   1.696128E+01
       1.567376   4.140628E-01   1.734422E+01
       1.575539   4.235182E-01   1.774029E+01
       1.583703   4.333011E-01   1.815008E+01
       1.591866   4.434267E-01   1.857422E+01
       1.600029   4.539109E-01   1.901338E+01
       1.608193   4.647706E-01   1.946826E+01
       1.616356   4.760235E-01   1.993963E+01
       1.624520   4.876887E-01   2.042826E+01
       1.632683   4.997861E-01   2.093499E+01
       1.640846   5.123370E-01   2.146072E+01
       1.649010   5.253638E-01   2.200639E+01
       1.657173   5.388905E-01   2.257299E+01
       1.665337   5.529425E-01   2.316160E+01
       1.673500   5.675467E-01   2.377334E+01
       1.681664   5.827318E-01   2.440941E+01
       1.689827   5.985284E-01   2.507110E+01
       1.697990   6.149689E-01   2.575976E+01
       1.706154   6.320881E-01   2.647684E+01
       1.714317   6.499228E-01   2.722390E+01
       1.722481   6.685125E-01   2.800258E+01
       1.730644   6.878992E-01   2.881466E+01
       1.738807   7.081282E-01   2.966200E+01
       1.746971   7.292473E-01   3.054664E+01
       1.755134   7.513083E-01   3.147073E+01
       1.763298   7.743663E-01   3.243658E+01
       1.771461   7.984805E-01   3.344667E+01
       1.779625   8.237145E-01   3.450367E+01
       1.787788   8.501366E-01   3.561044E+01
       1.795951   8.778200E-01   3.677004E+01
       1.804115   9.068439E-01   3.798579E+01
       1.812278   9.372931E-01   3.926124E+01
       1.820442   9.692594E-01   4.060024E+01
       1.828605   1.002842E+00   4.200694E+01
       1.836768   1.038147E+00   4.348580E+01
       1.844932   1.075291E+00   4.504167E+01
       1.853095   1.114398E+00   4.667979E+01
       1.861259   1.155604E+00   4.840584E+01
       1.869422   1.199057E+00   5.022598E+01
       1.877585   1.244915E+00   5.214690E+01
       1.885749   1.293354E+00   5.417587E+01
       1.893912   1.344560E+00   5.632081E+01
       1.902076   1.398742E+00   5.859037E+01
       1.910239   1.456123E+00   6.099395E+01
       1.918403   1.516950E+00   6.354186E+01
       1.926566   1.581492E+00   6.624537E+01
       1.934729   1.650042E+00   6.911682E+01
       1.942893   1.722926E+00   7.216975E+01
       1.951056   1.800498E+00   7.541907E+01
       1.959220   1.883149E+00   7.888116E+01
       1.967383   1.971311E+00   8.257409E+01
       1.975546   2.065460E+00   8.651779E+01
       1.983710   2.166123E+00   9.073434E+01
       1.991873   2.273882E+00   9.524816E+01
       2.000037   2.389386E+00   1.000864E+02
       2.008200   2.513354E+00   1.052791E+02
       2.016364   2.646587E+00   1.108600E+02
       2.024527   2.789981E+00   1.168664E+02
       2.032690   2.944535E+00   1.233404E+02
       2.040854   3.111371E+00   1.303288E+02
       2.049017   3.291748E+00   1.378844E+02
       2.057181   3.487082E+00   1.460665E+02
       2.065344   3.698970E+00   1.549421E+02
       2.073507   3.929221E+00   1.645868E+02
       2.081671   4.179882E+00   1.750865E+02
       2.089834   4.453280E+00   1.865386E+02
       2.097998   4.752068E+00   1.990542E+02
       2.106161   5.079274E+00   2.127601E+02
       2.114325   5.438371E+00   2.278019E+02
       2.122488   5.833347E+00   2.443467E+02
       2.130651   6.268801E+00   2.625869E+02
       2.138815   6.750051E+00   2.827455E+02
       2.146978   7.283266E+00   3.050807E+02
       2.155142   7.875631E+00   3.298937E+02
       2.163305   8.535539E+00   3.575358E+02
       2.171468   9.272834E+00   3.884195E+02
       2.179632   1.009911E+01   4.230303E+02
       2.187795   1.102805E+01   4.619420E+02
       2.195959   1.207594E+01   5.058358E+02
       2.204122   1.326215E+01   5.555237E+02
       2.212286   1.460990E+01   6.119781E+02
       2.220449   1.614711E+01   6.763685E+02
       2.228612   1.790752E+01   7.501084E+02
       2.236776   1.993211E+01   8.349143E+02
       2.244939   2.227088E+01   9.328805E+02
       2.253103   2.498514E+01   1.046575E+03
       2.261266   2.815040E+01   1.179161E+03
       2.269429   3.186014E+01   1.334554E+03
       2.277593   3.623053E+01   1.517621E+03
       2.285756   4.140648E+01   1.734431E+03
       2.293920   4.756924E+01   1.992576E+03
       2.302083   5.494579E+01   2.301564E+03
       2.310246   6.382009E+01   2.673289E+03
       2.318410   7.454565E+01   3.122561E+03
       2.326573   8.755801E+01   3.667621E+03
       2.334737   1.033828E+02   4.330489E+03
       2.342900   1.226305E+02   5.136735E+03
       2.351064   1.459586E+02   6.113899E+03
       2.359227   1.739640E+02   7.286987E+03
       2.367390   2.069380E+02   8.668197E+03
       2.375554   2.443719E+02   1.023623E+04
       2.383717   2.840690E+02   1.189905E+04
       2.391881   3.207756E+02   1.343662E+04
       2.400044   3.446238E+02   1.443557E+04
       2.408207   3.406742E+02   1.427013E+04
       2.416371   2.922810E+02   1.224304E+04
       2.424534   1.906227E+02   7.984784E+03
       2.432698   4.668059E+01   1.955352E+03
       2.440861  -1.068746E+02  -4.476754E+03
       2.449025  -2.319259E+02  -9.714890E+03
       2.457188  -3.063562E+02  -1.283262E+04
       2.465351  -3.307786E+02  -1.385562E+04
       2.473515  -3.195176E+02  -1.338392E+04
       2.481678  -2.889197E+02  -1.210224E+04
       2.489842  -2.512219E+02  -1.052316E+04
       2.498005  -2.136188E+02  -8.948042E+03
       2.506168  -1.795347E+02  -7.520331E+03
       2.514332  -1.501425E+02  -6.289153E+03
       2.522495  -1.254653E+02  -5.255479E+03
       2.530659  -1.050302E+02  -4.399496E+03
       2.538822  -8.820987E+01  -3.694926E+03
       2.546986  -7.438260E+01  -3.115731E+03
       2.555149  -6.299643E+01  -2.638788E+03
       2.563312  -5.358664E+01  -2.244632E+03
       2.571476  -4.577273E+01  -1.917323E+03
       2.579639  -3.924769E+01  -1.644003E+03
       2.587803  -3.376555E+01  -1.414368E+03
       2.595966  -2.912969E+01  -1.220182E+03
       2.604129  -2.518281E+01  -1.054855E+03
       2.612293  -2.179871E+01  -9.131024E+02
       2.620456  -1.887570E+01  -7.906635E+02
       2.628620  -1.633136E+01  -6.840866E+02
       2.636783  -1.409847E+01  -5.905553E+02
       2.644947  -1.212173E+01  -5.077539E+02
       2.653110  -1.035527E+01  -4.337605E+02
       2.661273  -8.760585E+00  -3.669625E+02
       2.669437  -7.304966E+00  -3.059897E+02
       2.677600  -5.960176E+00  -2.496593E+02
       2.685764  -4.701391E+00  -1.969314E+02
       2.693927  -3.506302E+00  -1.468716E+02
       2.702090  -2.354340E+00  -9.861835E+01
       2.710254  -1.225977E+00  -5.135361E+01
       2.718417  -1.020790E-01  -4.275875E+00
       2.726581   1.036744E+00   4.342702E+01
       2.734744   2.210802E+00   9.260586E+01
       2.742907   3.442059E+00   1.441806E+02
       2.751071   4.754960E+00   1.991753E+02
       2.759234   6.177415E+00   2.587590E+02
       2.767398   7.741983E+00   3.242954E+02
       2.775561   9.487335E+00   3.974046E+02
       2.783725   1.146009E+01   4.800390E+02
       2.791888   1.371709E+01   5.745799E+02
       2.800051   1.632830E+01   6.839584E+02
       2.808215   1.938043E+01   8.118053E+02
       2.816378   2.298124E+01   9.626358E+02
       2.824542   2.726483E+01   1.142066E+03
       2.832705   3.239726E+01   1.357053E+03
       2.840868   3.858192E+01   1.616116E+03
       2.849032   4.606220E+01   1.929449E+03
       2.857195   5.511682E+01   2.308728E+03
       2.865359   6.603783E+01   2.766186E+03
       2.873522   7.907217E+01   3.312167E+03
       2.881686   9.429256E+01   3.949718E+03
       2.889849   1.113439E+02   4.663962E+03
       2.898012   1.290003E+02   5.403554E+03
       2.906176   1.445163E+02   6.053486E+03
       2.914339   1.529724E+02   6.407694E+03
       2.922503   1.473346E+02   6.171537E+03
       2.930666   1.205295E+02   5.048728E+03
       2.938829   7.023261E+01   2.941897E+03
       2.946993   3.746332E+00   1.569260E+02
       2.955156  -6.296067E+01  -2.637290E+03
       2.963320  -1.138416E+02  -4.768585E+03
       2.971483  -1.414202E+02  -5.923797E+03
       2.979647  -1.478608E+02  -6.193578E+03
       2.987810  -1.401437E+02  -5.870325E+03
       2.995973  -1.252699E+02  -5.247293E+03
       3.004137  -1.081586E+02  -4.530537E+03
       3.012300  -9.156797E+01  -3.835590E+03
       3.020464  -7.673898E+01  -3.214435E+03
       3.028627  -6.404084E+01  -2.682536E+03
       3.036790  -5.341279E+01  -2.237350E+03
       3.044954  -4.461779E+01  -1.868946E+03
       3.053117  -3.737185E+01  -1.565428E+03
       3.061281  -3.140289E+01  -1.315401E+03
       3.069444  -2.647306E+01  -1.108901E+03
       3.077608  -2.238372E+01  -9.376069E+02
       3.085771  -1.897287E+01  -7.947338E+02
       3.093934  -1.611013E+01  -6.748194E+02
       3.102098  -1.369108E+01  -5.734905E+02
       3.110261  -1.163228E+01  -4.872519E+02
       3.118425  -9.866956E+00  -4.133061E+02
       3.126588  -8.341498E+00  -3.494079E+02
       3.134751  -7.012691E+00  -2.937469E+02
       3.142915  -5.845508E+00  -2.448561E+02
       3.151078  -4.811384E+00  -2.015388E+02
       3.159242  -3.886865E+00  -1.628126E+02
       3.167405  -3.052543E+00  -1.278646E+02
       3.175568  -2.292221E+00  -9.601632E+01
       3.183732  -1.592251E+00  -6.669604E+01
       3.191895  -9.410080E-01  -3.941685E+01
       3.200059  -3.284687E-01  -1.375886E+01
       3.208222   2.541332E-01   1.064511E+01
       3.216386   8.145865E-01   3.412132E+01
       3.224549   1.359937E+00   5.696490E+01
       3.232712   1.896685E+00   7.944818E+01
       3.240876   2.430963E+00   1.018280E+02
       3.249039   2.968685E+00   1.243520E+02
       3.257203   3.515692E+00   1.472650E+02
       3.265366   4.077892E+00   1.708144E+02
       3.273529   4.661397E+00   1.952561E+02
       3.281693   5.272661E+00   2.208607E+02
       3.289856   5.918640E+00   2.479194E+02
       3.298020   6.606958E+00   2.767516E+02
       3.306183   7.346098E+00   3.077126E+02
       3.314347   8.145630E+00   3.412034E+02
       3.322510   9.016477E+00   3.776813E+02
       3.330673   9.971229E+00   4.176738E+02
       3.338837   1.102453E+01   4.617945E+02
       3.347000   1.219356E+01   5.107629E+02
       3.355164   1.349862E+01   5.654289E+02
       3.363327   1.496384E+01   6.268038E+02
       3.371490   1.661811E+01   6.960978E+02
       3.379654   1.849624E+01   7.747689E+02
       3.387817   2.064039E+01   8.645828E+02
       3.395981   2.310193E+01   9.676913E+02
       3.404144   2.594376E+01   1.086730E+03
       3.412308   2.924337E+01   1.224943E+03
       3.420471   3.309661E+01   1.386348E+03
       3.428634   3.762263E+01   1.575933E+03
       3.436798   4.297007E+01   1.799926E+03
       3.444961   4.932480E+01   2.066112E+03
       3.453125   5.691958E+01   2.384242E+03
       3.461288   6.604535E+01   2.766501E+03
       3.469451   7.706380E+01   3.228041E+03
       3.477615   9.041922E+01   3.787472E+03
       3.485778   1.066449E+02   4.467132E+03
       3.493942   1.263540E+02   5.292704E+03
