#   T(K)    C_v(k_B/fu)        Gamma     alpha_v*10^6(K^-1)   E_th(eV)                       P_th(GPa)
#                                                                         ----------------------------------------------
#                                                                          {sum G_i.U_iV}  {int G.C_v/V dT}    {G.U/V}
# ----------------------------------------------------------------------------------------------------------------------
    10           0.056           0.000           0.000           0.031           0.000           0.000           0.000
    20           0.755           0.000           0.000           0.031           0.000           0.000           0.000
    30           1.981           0.000           0.000           0.032           0.000           0.000           0.000
    40           3.050           0.000           0.000           0.034           0.000           0.000           0.000
    50           3.818           0.000           0.000           0.037           0.000           0.000           0.000
    60           4.349           0.000           0.000           0.041           0.000           0.000           0.000
    70           4.719           0.000           0.000           0.045           0.000           0.000           0.000
    80           4.983           0.000           0.000           0.049           0.000           0.000           0.000
    90           5.176           0.000           0.000           0.053           0.000           0.000           0.000
   100           5.320           0.000           0.000           0.058           0.000           0.000           0.000
   110           5.430           0.000           0.000           0.063           0.000           0.000           0.000
   120           5.516           0.000           0.000           0.067           0.000           0.000           0.000
   130           5.584           0.000           0.000           0.072           0.000           0.000           0.000
   140           5.639           0.000           0.000           0.077           0.000           0.000           0.000
   150           5.684           0.000           0.000           0.082           0.000           0.000           0.000
   160           5.721           0.000           0.000           0.087           0.000           0.000           0.000
   170           5.752           0.000           0.000           0.092           0.000           0.000           0.000
   180           5.778           0.000           0.000           0.097           0.000           0.000           0.000
   190           5.800           0.000           0.000           0.102           0.000           0.000           0.000
   200           5.819           0.000           0.000           0.107           0.000           0.000           0.000
   210           5.836           0.000           0.000           0.112           0.000           0.000           0.000
   220           5.850           0.000           0.000           0.117           0.000           0.000           0.000
   230           5.863           0.000           0.000           0.122           0.000           0.000           0.000
   240           5.874           0.000           0.000           0.127           0.000           0.000           0.000
   250           5.883           0.000           0.000           0.132           0.000           0.000           0.000
   260           5.892           0.000           0.000           0.137           0.000           0.000           0.000
   270           5.900           0.000           0.000           0.142           0.000           0.000           0.000
   280           5.907           0.000           0.000           0.147           0.000           0.000           0.000
   290           5.913           0.000           0.000           0.152           0.000           0.000           0.000
   300           5.919           0.000           0.000           0.157           0.000           0.000           0.000
   310           5.924           0.000           0.000           0.162           0.000           0.000           0.000
   320           5.928           0.000           0.000           0.167           0.000           0.000           0.000
   330           5.933           0.000           0.000           0.173           0.000           0.000           0.000
   340           5.937           0.000           0.000           0.178           0.000           0.000           0.000
   350           5.940           0.000           0.000           0.183           0.000           0.000           0.000
   360           5.943           0.000           0.000           0.188           0.000           0.000           0.000
   370           5.946           0.000           0.000           0.193           0.000           0.000           0.000
   380           5.949           0.000           0.000           0.198           0.000           0.000           0.000
   390           5.952           0.000           0.000           0.203           0.000           0.000           0.000
   400           5.954           0.000           0.000           0.208           0.000           0.000           0.000
   410           5.956           0.000           0.000           0.214           0.000           0.000           0.000
   420           5.958           0.000           0.000           0.219           0.000           0.000           0.000
   430           5.960           0.000           0.000           0.224           0.000           0.000           0.000
   440           5.962           0.000           0.000           0.229           0.000           0.000           0.000
   450           5.964           0.000           0.000           0.234           0.000           0.000           0.000
   460           5.965           0.000           0.000           0.239           0.000           0.000           0.000
   470           5.967           0.000           0.000           0.244           0.000           0.000           0.000
   480           5.968           0.000           0.000           0.250           0.000           0.000           0.000
   490           5.969           0.000           0.000           0.255           0.000           0.000           0.000
   500           5.971           0.000           0.000           0.260           0.000           0.000           0.000
   510           5.972           0.000           0.000           0.265           0.000           0.000           0.000
   520           5.973           0.000           0.000           0.270           0.000           0.000           0.000
   530           5.974           0.000           0.000           0.275           0.000           0.000           0.000
   540           5.975           0.000           0.000           0.280           0.000           0.000           0.000
   550           5.976           0.000           0.000           0.286           0.000           0.000           0.000
   560           5.976           0.000           0.000           0.291           0.000           0.000           0.000
   570           5.977           0.000           0.000           0.296           0.000           0.000           0.000
   580           5.978           0.000           0.000           0.301           0.000           0.000           0.000
   590           5.979           0.000           0.000           0.306           0.000           0.000           0.000
   600           5.980           0.000           0.000           0.311           0.000           0.000           0.000
   610           5.980           0.000           0.000           0.316           0.000           0.000           0.000
   620           5.981           0.000           0.000           0.322           0.000           0.000           0.000
   630           5.981           0.000           0.000           0.327           0.000           0.000           0.000
   640           5.982           0.000           0.000           0.332           0.000           0.000           0.000
   650           5.983           0.000           0.000           0.337           0.000           0.000           0.000
   660           5.983           0.000           0.000           0.342           0.000           0.000           0.000
   670           5.984           0.000           0.000           0.347           0.000           0.000           0.000
   680           5.984           0.000           0.000           0.353           0.000           0.000           0.000
   690           5.985           0.000           0.000           0.358           0.000           0.000           0.000
   700           5.985           0.000           0.000           0.363           0.000           0.000           0.000
   710           5.985           0.000           0.000           0.368           0.000           0.000           0.000
   720           5.986           0.000           0.000           0.373           0.000           0.000           0.000
   730           5.986           0.000           0.000           0.378           0.000           0.000           0.000
   740           5.987           0.000           0.000           0.383           0.000           0.000           0.000
   750           5.987           0.000           0.000           0.389           0.000           0.000           0.000
   760           5.987           0.000           0.000           0.394           0.000           0.000           0.000
   770           5.988           0.000           0.000           0.399           0.000           0.000           0.000
   780           5.988           0.000           0.000           0.404           0.000           0.000           0.000
   790           5.988           0.000           0.000           0.409           0.000           0.000           0.000
   800           5.988           0.000           0.000           0.414           0.000           0.000           0.000
   810           5.989           0.000           0.000           0.420           0.000           0.000           0.000
   820           5.989           0.000           0.000           0.425           0.000           0.000           0.000
   830           5.989           0.000           0.000           0.430           0.000           0.000           0.000
   840           5.990           0.000           0.000           0.435           0.000           0.000           0.000
   850           5.990           0.000           0.000           0.440           0.000           0.000           0.000
   860           5.990           0.000           0.000           0.445           0.000           0.000           0.000
   870           5.990           0.000           0.000           0.451           0.000           0.000           0.000
   880           5.990           0.000           0.000           0.456           0.000           0.000           0.000
   890           5.991           0.000           0.000           0.461           0.000           0.000           0.000
   900           5.991           0.000           0.000           0.466           0.000           0.000           0.000
   910           5.991           0.000           0.000           0.471           0.000           0.000           0.000
   920           5.991           0.000           0.000           0.476           0.000           0.000           0.000
   930           5.991           0.000           0.000           0.482           0.000           0.000           0.000
   940           5.992           0.000           0.000           0.487           0.000           0.000           0.000
   950           5.992           0.000           0.000           0.492           0.000           0.000           0.000
   960           5.992           0.000           0.000           0.497           0.000           0.000           0.000
   970           5.992           0.000           0.000           0.502           0.000           0.000           0.000
   980           5.992           0.000           0.000           0.507           0.000           0.000           0.000
   990           5.992           0.000           0.000           0.513           0.000           0.000           0.000
  1000           5.993           0.000           0.000           0.518           0.000           0.000           0.000
  1010           5.993           0.000           0.000           0.523           0.000           0.000           0.000
  1020           5.993           0.000           0.000           0.528           0.000           0.000           0.000
  1030           5.993           0.000           0.000           0.533           0.000           0.000           0.000
  1040           5.993           0.000           0.000           0.538           0.000           0.000           0.000
  1050           5.993           0.000           0.000           0.543           0.000           0.000           0.000
  1060           5.993           0.000           0.000           0.549           0.000           0.000           0.000
  1070           5.994           0.000           0.000           0.554           0.000           0.000           0.000
  1080           5.994           0.000           0.000           0.559           0.000           0.000           0.000
  1090           5.994           0.000           0.000           0.564           0.000           0.000           0.000
  1100           5.994           0.000           0.000           0.569           0.000           0.000           0.000
  1110           5.994           0.000           0.000           0.574           0.000           0.000           0.000
  1120           5.994           0.000           0.000           0.580           0.000           0.000           0.000
  1130           5.994           0.000           0.000           0.585           0.000           0.000           0.000
  1140           5.994           0.000           0.000           0.590           0.000           0.000           0.000
  1150           5.994           0.000           0.000           0.595           0.000           0.000           0.000
  1160           5.995           0.000           0.000           0.600           0.000           0.000           0.000
  1170           5.995           0.000           0.000           0.605           0.000           0.000           0.000
  1180           5.995           0.000           0.000           0.611           0.000           0.000           0.000
  1190           5.995           0.000           0.000           0.616           0.000           0.000           0.000
  1200           5.995           0.000           0.000           0.621           0.000           0.000           0.000
  1210           5.995           0.000           0.000           0.626           0.000           0.000           0.000
  1220           5.995           0.000           0.000           0.631           0.000           0.000           0.000
  1230           5.995           0.000           0.000           0.636           0.000           0.000           0.000
  1240           5.995           0.000           0.000           0.642           0.000           0.000           0.000
  1250           5.995           0.000           0.000           0.647           0.000           0.000           0.000
  1260           5.995           0.000           0.000           0.652           0.000           0.000           0.000
  1270           5.995           0.000           0.000           0.657           0.000           0.000           0.000
  1280           5.995           0.000           0.000           0.662           0.000           0.000           0.000
  1290           5.996           0.000           0.000           0.667           0.000           0.000           0.000
  1300           5.996           0.000           0.000           0.673           0.000           0.000           0.000
  1310           5.996           0.000           0.000           0.678           0.000           0.000           0.000
  1320           5.996           0.000           0.000           0.683           0.000           0.000           0.000
  1330           5.996           0.000           0.000           0.688           0.000           0.000           0.000
  1340           5.996           0.000           0.000           0.693           0.000           0.000           0.000
  1350           5.996           0.000           0.000           0.698           0.000           0.000           0.000
  1360           5.996           0.000           0.000           0.704           0.000           0.000           0.000
  1370           5.996           0.000           0.000           0.709           0.000           0.000           0.000
  1380           5.996           0.000           0.000           0.714           0.000           0.000           0.000
  1390           5.996           0.000           0.000           0.719           0.000           0.000           0.000
  1400           5.996           0.000           0.000           0.724           0.000           0.000           0.000
  1410           5.996           0.000           0.000           0.729           0.000           0.000           0.000
  1420           5.996           0.000           0.000           0.735           0.000           0.000           0.000
  1430           5.996           0.000           0.000           0.740           0.000           0.000           0.000
  1440           5.996           0.000           0.000           0.745           0.000           0.000           0.000
  1450           5.996           0.000           0.000           0.750           0.000           0.000           0.000
  1460           5.997           0.000           0.000           0.755           0.000           0.000           0.000
  1470           5.997           0.000           0.000           0.760           0.000           0.000           0.000
  1480           5.997           0.000           0.000           0.766           0.000           0.000           0.000
  1490           5.997           0.000           0.000           0.771           0.000           0.000           0.000
  1500           5.997           0.000           0.000           0.776           0.000           0.000           0.000
  1510           5.997           0.000           0.000           0.781           0.000           0.000           0.000
  1520           5.997           0.000           0.000           0.786           0.000           0.000           0.000
  1530           5.997           0.000           0.000           0.791           0.000           0.000           0.000
  1540           5.997           0.000           0.000           0.797           0.000           0.000           0.000
  1550           5.997           0.000           0.000           0.802           0.000           0.000           0.000
  1560           5.997           0.000           0.000           0.807           0.000           0.000           0.000
  1570           5.997           0.000           0.000           0.812           0.000           0.000           0.000
  1580           5.997           0.000           0.000           0.817           0.000           0.000           0.000
  1590           5.997           0.000           0.000           0.822           0.000           0.000           0.000
  1600           5.997           0.000           0.000           0.828           0.000           0.000           0.000
  1610           5.997           0.000           0.000           0.833           0.000           0.000           0.000
  1620           5.997           0.000           0.000           0.838           0.000           0.000           0.000
  1630           5.997           0.000           0.000           0.843           0.000           0.000           0.000
  1640           5.997           0.000           0.000           0.848           0.000           0.000           0.000
