 #calculated the component:  1  1  of dielectric function
 #broadening:    0.000000E+00    1.000000E-03
 #scissors shift:    0.000000E+00
 #energy window:    3.764934E+01eV    1.383588E+00Ha

 # Energy(eV)         Im(eps(w))
    5.442277E-02    3.437572E-03
    1.088455E-01    6.886369E-03
    1.632683E-01    1.035772E-02
    2.176911E-01    1.386314E-02
    2.721138E-01    1.741448E-02
    3.265366E-01    2.102400E-02
    3.809594E-01    2.470449E-02
    4.353821E-01    2.846942E-02
    4.898049E-01    3.233309E-02
    5.442277E-01    3.631073E-02
    5.986504E-01    4.041875E-02
    6.530732E-01    4.467488E-02
    7.074960E-01    4.909844E-02
    7.619187E-01    5.371059E-02
    8.163415E-01    5.853460E-02
    8.707643E-01    6.359627E-02
    9.251870E-01    6.892428E-02
    9.796098E-01    7.455072E-02
    1.034033E+00    8.051165E-02
    1.088455E+00    8.684780E-02
    1.142878E+00    9.360539E-02
    1.197301E+00    1.008372E-01
    1.251724E+00    1.086036E-01
    1.306146E+00    1.169743E-01
    1.360569E+00    1.260299E-01
    1.414992E+00    1.358645E-01
    1.469415E+00    1.465881E-01
    1.523837E+00    1.583306E-01
    1.578260E+00    1.712458E-01
    1.632683E+00    1.855176E-01
    1.687106E+00    2.013671E-01
    1.741529E+00    2.190623E-01
    1.795951E+00    2.389308E-01
    1.850374E+00    2.613767E-01
    1.904797E+00    2.869033E-01
    1.959220E+00    3.161439E-01
    2.013642E+00    3.499052E-01
    2.068065E+00    3.892277E-01
    2.122488E+00    4.354725E-01
    2.176911E+00    4.904489E-01
    2.231333E+00    5.566042E-01
    2.285756E+00    6.373159E-01
    2.340179E+00    7.373521E-01
    2.394602E+00    8.636220E-01
    2.449025E+00    1.026445E+00
    2.503447E+00    1.241795E+00
    2.557870E+00    1.535471E+00
    2.612293E+00    1.951350E+00
    2.666716E+00    2.569025E+00
    2.721138E+00    3.545239E+00
    2.775561E+00    5.224249E+00
    2.829984E+00    8.486353E+00
    2.884407E+00    1.615812E+01
    2.938829E+00    4.149710E+01
    2.993252E+00    2.039940E+02
    3.047675E+00    2.190328E+02
    3.102098E+00    4.333857E+01
    3.156521E+00    1.666666E+01
    3.210943E+00    8.745591E+00
    3.265366E+00    5.424134E+00
    3.319789E+00    3.739624E+00
    3.374212E+00    2.779226E+00
    3.428634E+00    2.188799E+00
    3.483057E+00    1.808433E+00
    3.537480E+00    1.557922E+00
    3.591903E+00    1.394055E+00
    3.646325E+00    1.292621E+00
    3.700748E+00    1.240157E+00
    3.755171E+00    1.230018E+00
    3.809594E+00    1.260622E+00
    3.864017E+00    1.335041E+00
    3.918439E+00    1.461746E+00
    3.972862E+00    1.656837E+00
    4.027285E+00    1.948847E+00
    4.081708E+00    2.388830E+00
    4.136130E+00    3.072686E+00
    4.190553E+00    4.195462E+00
    4.244976E+00    6.201986E+00
    4.299399E+00    1.029015E+01
    4.353821E+00    2.063033E+01
    4.408244E+00    5.982613E+01
    4.462667E+00    3.454034E+02
    4.517090E+00    1.345473E+02
    4.571512E+00    3.314606E+01
    4.625935E+00    1.422875E+01
    4.680358E+00    7.932274E+00
    4.734781E+00    5.138068E+00
    4.789204E+00    3.685072E+00
    4.843626E+00    2.861659E+00
    4.898049E+00    2.384600E+00
    4.952472E+00    2.131767E+00
    5.006895E+00    2.058475E+00
    5.061317E+00    2.176174E+00
    5.115740E+00    2.572525E+00
    5.170163E+00    3.513804E+00
    5.224586E+00    5.876142E+00
    5.279008E+00    1.367661E+01
    5.333431E+00    6.166627E+01
    5.387854E+00    8.518520E+01
    5.442277E+00    1.644919E+01
    5.496700E+00    6.504883E+00
    5.551122E+00    3.835620E+00
    5.605545E+00    3.522652E+00
    5.659968E+00    9.466965E+00
    5.714391E+00    4.841023E+00
    5.768813E+00    1.768853E+00
    5.823236E+00    1.101725E+00
    5.877659E+00    8.243216E-01
    5.932082E+00    6.721403E-01
    5.986504E+00    5.808499E-01
    6.040927E+00    5.338171E-01
    6.095350E+00    5.474067E-01
    6.149773E+00    7.600526E-01
    6.204196E+00    2.574079E+00
    6.258618E+00    1.430663E+00
    6.313041E+00    5.334584E-01
    6.367464E+00    3.590930E-01
    6.421887E+00    2.919529E-01
    6.476309E+00    2.554524E-01
    6.530732E+00    2.317752E-01
    6.585155E+00    2.150601E-01
    6.639578E+00    2.030141E-01
    6.694000E+00    1.948021E-01
    6.748423E+00    1.905038E-01
    6.802846E+00    1.912648E-01
    6.857269E+00    2.003686E-01
    6.911691E+00    2.271756E-01
    6.966114E+00    3.048813E-01
    7.020537E+00    6.175075E-01
    7.074960E+00    2.863122E+00
    7.129383E+00    1.111676E+00
    7.183805E+00    9.752006E-01
    7.238228E+00    6.322988E-01
    7.292651E+00    2.647502E-01
    7.347074E+00    1.910417E-01
    7.401496E+00    1.642688E-01
    7.455919E+00    1.523407E-01
    7.510342E+00    1.473611E-01
    7.564765E+00    1.467179E-01
    7.619187E+00    1.495432E-01
    7.673610E+00    1.557872E-01
    7.728033E+00    1.659830E-01
    7.782456E+00    1.813018E-01
    7.836879E+00    2.038604E-01
    7.891301E+00    2.374379E-01
    7.945724E+00    2.890902E-01
    8.000147E+00    3.730836E-01
    8.054570E+00    5.217962E-01
    8.108992E+00    8.221149E-01


 # Energy(eV)         Re(eps(w))
    5.442277E-02    1.625337E+01
    1.088455E-01    1.626369E+01
    1.632683E-01    1.628092E+01
    2.176911E-01    1.630513E+01
    2.721138E-01    1.633639E+01
    3.265366E-01    1.637481E+01
    3.809594E-01    1.642051E+01
    4.353821E-01    1.647365E+01
    4.898049E-01    1.653442E+01
    5.442277E-01    1.660302E+01
    5.986504E-01    1.667971E+01
    6.530732E-01    1.676475E+01
    7.074960E-01    1.685846E+01
    7.619187E-01    1.696120E+01
    8.163415E-01    1.707337E+01
    8.707643E-01    1.719542E+01
    9.251870E-01    1.732785E+01
    9.796098E-01    1.747122E+01
    1.034033E+00    1.762616E+01
    1.088455E+00    1.779339E+01
    1.142878E+00    1.797369E+01
    1.197301E+00    1.816797E+01
    1.251724E+00    1.837722E+01
    1.306146E+00    1.860258E+01
    1.360569E+00    1.884534E+01
    1.414992E+00    1.910696E+01
    1.469415E+00    1.938910E+01
    1.523837E+00    1.969365E+01
    1.578260E+00    2.002281E+01
    1.632683E+00    2.037909E+01
    1.687106E+00    2.076540E+01
    1.741529E+00    2.118517E+01
    1.795951E+00    2.164237E+01
    1.850374E+00    2.214174E+01
    1.904797E+00    2.268890E+01
    1.959220E+00    2.329058E+01
    2.013642E+00    2.395497E+01
    2.068065E+00    2.469204E+01
    2.122488E+00    2.551416E+01
    2.176911E+00    2.643681E+01
    2.231333E+00    2.747963E+01
    2.285756E+00    2.866800E+01
    2.340179E+00    3.003522E+01
    2.394602E+00    3.162597E+01
    2.449025E+00    3.350159E+01
    2.503447E+00    3.574873E+01
    2.557870E+00    3.849392E+01
    2.612293E+00    4.192947E+01
    2.666716E+00    4.636260E+01
    2.721138E+00    5.231563E+01
    2.775561E+00    6.075184E+01
    2.829984E+00    7.365239E+01
    2.884407E+00    9.575748E+01
    2.938829E+00    1.408596E+02
    2.993252E+00    2.267041E+02
    3.047675E+00   -1.951556E+02
    3.102098E+00   -1.116745E+02
    3.156521E+00   -6.513344E+01
    3.210943E+00   -4.238392E+01
    3.265366E+00   -2.905412E+01
    3.319789E+00   -2.023403E+01
    3.374212E+00   -1.388129E+01
    3.428634E+00   -9.003593E+00
    3.483057E+00   -5.060189E+00
    3.537480E+00   -1.728520E+00
    3.591903E+00    1.199370E+00
    3.646325E+00    3.867936E+00
    3.700748E+00    6.385811E+00
    3.755171E+00    8.842399E+00
    3.809594E+00    1.131921E+01
    3.864017E+00    1.389920E+01
    3.918439E+00    1.667639E+01
    3.972862E+00    1.976831E+01
    4.027285E+00    2.333485E+01
    4.081708E+00    2.761068E+01
    4.136130E+00    3.296636E+01
    4.190553E+00    4.003524E+01
    4.244976E+00    5.000682E+01
    4.299399E+00    6.540642E+01
    4.353821E+00    9.256857E+01
    4.408244E+00    1.506679E+02
    4.462667E+00    1.767967E+02
    4.517090E+00   -1.979769E+02
    4.571512E+00   -1.116305E+02
    4.625935E+00   -7.268598E+01
    4.680358E+00   -5.247490E+01
    4.734781E+00   -4.007443E+01
    4.789204E+00   -3.154240E+01
    4.843626E+00   -2.514529E+01
    4.898049E+00   -1.998851E+01
    4.952472E+00   -1.553618E+01
    5.006895E+00   -1.140452E+01
    5.061317E+00   -7.242508E+00
    5.115740E+00   -2.615676E+00
    5.170163E+00    3.201468E+00
    5.224586E+00    1.178827E+01
    5.279008E+00    2.755562E+01
    5.333431E+00    5.849043E+01
    5.387854E+00   -8.230666E+01
    5.442277E+00   -5.555446E+01
    5.496700E+00   -3.784511E+01
    5.551122E+00   -2.858265E+01
    5.605545E+00   -2.203422E+01
    5.659968E+00   -1.734617E+01
    5.714391E+00   -2.478745E+01
    5.768813E+00   -2.058286E+01
    5.823236E+00   -1.796357E+01
    5.877659E+00   -1.610234E+01
    5.932082E+00   -1.463277E+01
    5.986504E+00   -1.339570E+01
    6.040927E+00   -1.229615E+01
    6.095350E+00   -1.124490E+01
    6.149773E+00   -1.008187E+01
    6.204196E+00   -8.991686E+00
    6.258618E+00   -1.136668E+01
    6.313041E+00   -1.014703E+01
    6.367464E+00   -9.326433E+00
    6.421887E+00   -8.692085E+00
    6.476309E+00   -8.150788E+00
    6.530732E+00   -7.666550E+00
    6.585155E+00   -7.221541E+00
    6.639578E+00   -6.804828E+00
    6.694000E+00   -6.408255E+00
    6.748423E+00   -6.024370E+00
    6.802846E+00   -5.644661E+00
    6.857269E+00   -5.256821E+00
    6.911691E+00   -4.838330E+00
    6.966114E+00   -4.336680E+00
    7.020537E+00   -3.598651E+00
    7.074960E+00   -3.322668E+00
    7.129383E+00   -5.400501E+00
    7.183805E+00   -4.382896E+00
    7.238228E+00   -4.869792E+00
    7.292651E+00   -4.278647E+00
    7.347074E+00   -3.853295E+00
    7.401496E+00   -3.505731E+00
    7.455919E+00   -3.192265E+00
    7.510342E+00   -2.894299E+00
    7.564765E+00   -2.601462E+00
    7.619187E+00   -2.306314E+00
    7.673610E+00   -2.002181E+00
    7.728033E+00   -1.681882E+00
    7.782456E+00   -1.336592E+00
    7.836879E+00   -9.543500E-01
    7.891301E+00   -5.176488E-01
    7.945724E+00    1.055524E-03
    8.000147E+00    6.485864E-01
    8.054570E+00    1.512359E+00
    8.108992E+00    2.776856E+00


 # Energy(eV)         abs(eps(w))
    5.442277E-02    1.625337E+01
    1.088455E-01    1.626369E+01
    1.632683E-01    1.628092E+01
    2.176911E-01    1.630514E+01
    2.721138E-01    1.633640E+01
    3.265366E-01    1.637482E+01
    3.809594E-01    1.642053E+01
    4.353821E-01    1.647368E+01
    4.898049E-01    1.653445E+01
    5.442277E-01    1.660306E+01
    5.986504E-01    1.667975E+01
    6.530732E-01    1.676481E+01
    7.074960E-01    1.685853E+01
    7.619187E-01    1.696129E+01
    8.163415E-01    1.707347E+01
    8.707643E-01    1.719554E+01
    9.251870E-01    1.732798E+01
    9.796098E-01    1.747138E+01
    1.034033E+00    1.762635E+01
    1.088455E+00    1.779360E+01
    1.142878E+00    1.797394E+01
    1.197301E+00    1.816825E+01
    1.251724E+00    1.837754E+01
    1.306146E+00    1.860295E+01
    1.360569E+00    1.884577E+01
    1.414992E+00    1.910744E+01
    1.469415E+00    1.938965E+01
    1.523837E+00    1.969429E+01
    1.578260E+00    2.002354E+01
    1.632683E+00    2.037993E+01
    1.687106E+00    2.076638E+01
    1.741529E+00    2.118630E+01
    1.795951E+00    2.164369E+01
    1.850374E+00    2.214329E+01
    1.904797E+00    2.269071E+01
    1.959220E+00    2.329273E+01
    2.013642E+00    2.395752E+01
    2.068065E+00    2.469511E+01
    2.122488E+00    2.551788E+01
    2.176911E+00    2.644136E+01
    2.231333E+00    2.748527E+01
    2.285756E+00    2.867508E+01
    2.340179E+00    3.004427E+01
    2.394602E+00    3.163776E+01
    2.449025E+00    3.351731E+01
    2.503447E+00    3.577029E+01
    2.557870E+00    3.852453E+01
    2.612293E+00    4.197486E+01
    2.666716E+00    4.643372E+01
    2.721138E+00    5.243562E+01
    2.775561E+00    6.097605E+01
    2.829984E+00    7.413968E+01
    2.884407E+00    9.711117E+01
    2.938829E+00    1.468450E+02
    2.993252E+00    3.049726E+02
    3.047675E+00    2.933617E+02
    3.102098E+00    1.197891E+02
    3.156521E+00    6.723200E+01
    3.210943E+00    4.327681E+01
    3.265366E+00    2.955610E+01
    3.319789E+00    2.057671E+01
    3.374212E+00    1.415677E+01
    3.428634E+00    9.265825E+00
    3.483057E+00    5.373634E+00
    3.537480E+00    2.326994E+00
    3.591903E+00    1.838988E+00
    3.646325E+00    4.078210E+00
    3.700748E+00    6.505119E+00
    3.755171E+00    8.927540E+00
    3.809594E+00    1.138919E+01
    3.864017E+00    1.396317E+01
    3.918439E+00    1.674033E+01
    3.972862E+00    1.983762E+01
    4.027285E+00    2.341609E+01
    4.081708E+00    2.771382E+01
    4.136130E+00    3.310925E+01
    4.190553E+00    4.025447E+01
    4.244976E+00    5.038995E+01
    4.299399E+00    6.621093E+01
    4.353821E+00    9.483961E+01
    4.408244E+00    1.621110E+02
    4.462667E+00    3.880214E+02
    4.517090E+00    2.393696E+02
    4.571512E+00    1.164476E+02
    4.625935E+00    7.406557E+01
    4.680358E+00    5.307105E+01
    4.734781E+00    4.040247E+01
    4.789204E+00    3.175693E+01
    4.843626E+00    2.530760E+01
    4.898049E+00    2.013024E+01
    4.952472E+00    1.568175E+01
    5.006895E+00    1.158881E+01
    5.061317E+00    7.562385E+00
    5.115740E+00    3.668739E+00
    5.170163E+00    4.753548E+00
    5.224586E+00    1.317165E+01
    5.279008E+00    3.076299E+01
    5.333431E+00    8.499329E+01
    5.387854E+00    1.184521E+02
    5.442277E+00    5.793853E+01
    5.496700E+00    3.840008E+01
    5.551122E+00    2.883887E+01
    5.605545E+00    2.231403E+01
    5.659968E+00    1.976141E+01
    5.714391E+00    2.525576E+01
    5.768813E+00    2.065873E+01
    5.823236E+00    1.799732E+01
    5.877659E+00    1.612342E+01
    5.932082E+00    1.464820E+01
    5.986504E+00    1.340829E+01
    6.040927E+00    1.230773E+01
    6.095350E+00    1.125822E+01
    6.149773E+00    1.011047E+01
    6.204196E+00    9.352876E+00
    6.258618E+00    1.145636E+01
    6.313041E+00    1.016105E+01
    6.367464E+00    9.333343E+00
    6.421887E+00    8.696987E+00
    6.476309E+00    8.154790E+00
    6.530732E+00    7.670053E+00
    6.585155E+00    7.224743E+00
    6.639578E+00    6.807856E+00
    6.694000E+00    6.411215E+00
    6.748423E+00    6.027382E+00
    6.802846E+00    5.647900E+00
    6.857269E+00    5.260638E+00
    6.911691E+00    4.843660E+00
    6.966114E+00    4.347384E+00
    7.020537E+00    3.651247E+00
    7.074960E+00    4.386068E+00
    7.129383E+00    5.513732E+00
    7.183805E+00    4.490078E+00
    7.238228E+00    4.910670E+00
    7.292651E+00    4.286830E+00
    7.347074E+00    3.858028E+00
    7.401496E+00    3.509578E+00
    7.455919E+00    3.195898E+00
    7.510342E+00    2.898048E+00
    7.564765E+00    2.605596E+00
    7.619187E+00    2.311157E+00
    7.673610E+00    2.008232E+00
    7.728033E+00    1.690053E+00
    7.782456E+00    1.348832E+00
    7.836879E+00    9.758806E-01
    7.891301E+00    5.695060E-01
    7.945724E+00    2.890921E-01
    8.000147E+00    7.482350E-01
    8.054570E+00    1.599844E+00
    8.108992E+00    2.895997E+00


 # Energy(eV)         Im(refractive index(w)) aka kappa
    5.442277E-02    4.263342E-04
    1.088455E-01    8.537895E-04
    1.632683E-01    1.283496E-03
    2.176911E-01    1.716601E-03
    2.721138E-01    2.154281E-03
    3.265366E-01    2.597748E-03
    3.809594E-01    3.048263E-03
    4.353821E-01    3.507144E-03
    4.898049E-01    3.975781E-03
    5.442277E-01    4.455651E-03
    5.986504E-01    4.948326E-03
    6.530732E-01    5.455499E-03
    7.074960E-01    5.978996E-03
    7.619187E-01    6.520802E-03
    8.163415E-01    7.083083E-03
    8.707643E-01    7.668219E-03
    9.251870E-01    8.278832E-03
    9.796098E-01    8.917832E-03
    1.034033E+00    9.588457E-03
    1.088455E+00    1.029433E-02
    1.142878E+00    1.103953E-02
    1.197301E+00    1.182867E-02
    1.251724E+00    1.266696E-02
    1.306146E+00    1.356037E-02
    1.360569E+00    1.451574E-02
    1.414992E+00    1.554095E-02
    1.469415E+00    1.664512E-02
    1.523837E+00    1.783891E-02
    1.578260E+00    1.913478E-02
    1.632683E+00    2.054747E-02
    1.687106E+00    2.209445E-02
    1.741529E+00    2.379666E-02
    1.795951E+00    2.567930E-02
    1.850374E+00    2.777304E-02
    1.904797E+00    3.011550E-02
    1.959220E+00    3.275326E-02
    2.013642E+00    3.574465E-02
    2.068065E+00    3.916352E-02
    2.122488E+00    4.310467E-02
    2.176911E+00    4.769146E-02
    2.231333E+00    5.308707E-02
    2.285756E+00    5.951127E-02
    2.340179E+00    6.726618E-02
    2.394602E+00    7.677703E-02
    2.449025E+00    8.865887E-02
    2.503447E+00    1.038303E-01
    2.557870E+00    1.237169E-01
    2.612293E+00    1.506357E-01
    2.666716E+00    1.885767E-01
    2.721138E+00    2.449350E-01
    2.775561E+00    3.348219E-01
    2.829984E+00    4.936061E-01
    2.884407E+00    8.227067E-01
    2.938829E+00    1.729933E+00
    2.993252E+00    6.255739E+00
    3.047675E+00    1.562878E+01
    3.102098E+00    1.075787E+01
    3.156521E+00    8.135276E+00
    3.210943E+00    6.544491E+00
    3.265366E+00    5.413420E+00
    3.319789E+00    4.517231E+00
    3.374212E+00    3.744200E+00
    3.428634E+00    3.022368E+00
    3.483057E+00    2.284056E+00
    3.537480E+00    1.423993E+00
    3.591903E+00    5.655168E-01
    3.646325E+00    3.242486E-01
    3.700748E+00    2.442416E-01
    3.755171E+00    2.063258E-01
    3.809594E+00    1.870581E-01
    3.864017E+00    1.788425E-01
    3.918439E+00    1.788030E-01
    3.972862E+00    1.861592E-01
    4.027285E+00    2.015429E-01
    4.081708E+00    2.270970E-01
    4.136130E+00    2.672899E-01
    4.190553E+00    3.310815E-01
    4.244976E+00    4.376792E-01
    4.299399E+00    6.342349E-01
    4.353821E+00    1.065607E+00
    4.408244E+00    2.391978E+00
    4.462667E+00    1.027679E+01
    4.517090E+00    1.478760E+01
    4.571512E+00    1.067891E+01
    4.625935E+00    8.565966E+00
    4.680358E+00    7.264501E+00
    4.734781E+00    6.343379E+00
    4.789204E+00    5.625804E+00
    4.843626E+00    5.022594E+00
    4.898049E+00    4.478769E+00
    4.952472E+00    3.950818E+00
    5.006895E+00    3.390674E+00
    5.061317E+00    2.720744E+00
    5.115740E+00    1.772627E+00
    5.170163E+00    8.809313E-01
    5.224586E+00    8.316790E-01
    5.279008E+00    1.266368E+00
    5.333431E+00    3.640251E+00
    5.387854E+00    1.001895E+01
    5.442277E+00    7.533027E+00
    5.496700E+00    6.174350E+00
    5.551122E+00    5.358242E+00
    5.605545E+00    4.708941E+00
    5.659968E+00    4.307411E+00
    5.714391E+00    5.002160E+00
    5.768813E+00    4.541013E+00
    5.823236E+00    4.240336E+00
    5.877659E+00    4.014085E+00
    5.932082E+00    3.826289E+00
    5.986504E+00    3.660874E+00
    6.040927E+00    3.507412E+00
    6.095350E+00    3.354335E+00
    6.149773E+00    3.177447E+00
    6.204196E+00    3.028577E+00
    6.258618E+00    3.378095E+00
    6.313041E+00    3.186541E+00
    6.367464E+00    3.054487E+00
    6.421887E+00    2.948650E+00
    6.476309E+00    2.855309E+00
    6.530732E+00    2.769170E+00
    6.585155E+00    2.687590E+00
    6.639578E+00    2.608897E+00
    6.694000E+00    2.531745E+00
    6.748423E+00    2.454766E+00
    6.802846E+00    2.376190E+00
    6.857269E+00    2.293192E+00
    6.911691E+00    2.200226E+00
    6.966114E+00    2.083754E+00
    7.020537E+00    1.903930E+00
    7.074960E+00    1.963254E+00
    7.129383E+00    2.336047E+00
    7.183805E+00    2.106297E+00
    7.238228E+00    2.211387E+00
    7.292651E+00    2.069478E+00
    7.347074E+00    1.963584E+00
    7.401496E+00    1.872873E+00
    7.455919E+00    1.787199E+00
    7.510342E+00    1.701815E+00
    7.564765E+00    1.613545E+00
    7.619187E+00    1.519452E+00
    7.673610E+00    1.416053E+00
    7.728033E+00    1.298448E+00
    7.782456E+00    1.158754E+00
    7.836879E+00    9.824028E-01
    7.891301E+00    7.372770E-01
    7.945724E+00    3.794974E-01
    8.000147E+00    2.232136E-01
    8.054570E+00    2.091472E-01
