 #calculated the component:  2  2  2
 #tolerance:    1.000000E-03
 #broadening:    1.000000E-03Ha
 #scissors shift:    0.000000E+00Ha
 #energy window:    3.764934E+01eV    1.383588E+00Ha
 # Energy(eV) Chi(w) Eta(w) Sigma(w)
 # in esu
 # 
       0.054423   1.692054E-32  -2.501744E-32  -1.250618E-32
       0.108846   1.693462E-32  -2.505812E-32  -1.251635E-32
       0.163268   1.695815E-32  -2.512618E-32  -1.253333E-32
       0.217691   1.699120E-32  -2.522198E-32  -1.255720E-32
       0.272114   1.703390E-32  -2.534605E-32  -1.258803E-32
       0.326537   1.708641E-32  -2.549909E-32  -1.262594E-32
       0.380959   1.714892E-32  -2.568195E-32  -1.267108E-32
       0.435382   1.722167E-32  -2.589569E-32  -1.272362E-32
       0.489805   1.730492E-32  -2.614155E-32  -1.278374E-32
       0.544228   1.739901E-32  -2.642099E-32  -1.285170E-32
       0.598650   1.750430E-32  -2.673570E-32  -1.292776E-32
       0.653073   1.762122E-32  -2.708764E-32  -1.301223E-32
       0.707496   1.775025E-32  -2.747905E-32  -1.310545E-32
       0.761919   1.789191E-32  -2.791249E-32  -1.320782E-32
       0.816342   1.804684E-32  -2.839091E-32  -1.331978E-32
       0.870764   1.821570E-32  -2.891764E-32  -1.344184E-32
       0.925187   1.839927E-32  -2.949652E-32  -1.357456E-32
       0.979610   1.859842E-32  -3.013190E-32  -1.371856E-32
       1.034033   1.881411E-32  -3.082877E-32  -1.387456E-32
       1.088455   1.904744E-32  -3.159285E-32  -1.404335E-32
       1.142878   1.929964E-32  -3.243070E-32  -1.422584E-32
       1.197301   1.957208E-32  -3.334988E-32  -1.442302E-32
       1.251724   1.986633E-32  -3.435910E-32  -1.463604E-32
       1.306146   2.018415E-32  -3.546848E-32  -1.486620E-32
       1.360569   2.052754E-32  -3.668976E-32  -1.511496E-32
       1.414992   2.089880E-32  -3.803668E-32  -1.538399E-32
       1.469415   2.130051E-32  -3.952538E-32  -1.567519E-32
       1.523837   2.173567E-32  -4.117487E-32  -1.599077E-32
       1.578260   2.220772E-32  -4.300773E-32  -1.633324E-32
       1.632683   2.272063E-32  -4.505093E-32  -1.670552E-32
       1.687106   2.327902E-32  -4.733686E-32  -1.711101E-32
       1.741529   2.388830E-32  -4.990477E-32  -1.755367E-32
       1.795951   2.455483E-32  -5.280252E-32  -1.803819E-32
       1.850374   2.528614E-32  -5.608905E-32  -1.857011E-32
       1.904797   2.609122E-32  -5.983757E-32  -1.915603E-32
       1.959220   2.698087E-32  -6.413998E-32  -1.980393E-32
       2.013642   2.796823E-32  -6.911299E-32  -2.052347E-32
       2.068065   2.906937E-32  -7.490660E-32  -2.132652E-32
       2.122488   3.030424E-32  -8.171635E-32  -2.222778E-32
       2.176911   3.169786E-32  -8.980113E-32  -2.324572E-32
       2.231333   3.328206E-32  -9.950961E-32  -2.440386E-32
       2.285756   3.509801E-32  -1.113207E-31  -2.573258E-32
       2.340179   3.719984E-32  -1.259071E-31  -2.727192E-32
       2.394602   3.966027E-32  -1.442380E-31  -2.907564E-32
       2.449025   4.257930E-32  -1.677517E-31  -3.121769E-32
       2.503447   4.609835E-32  -1.986580E-31  -3.380271E-32
       2.557870   5.042410E-32  -2.404958E-31  -3.698366E-32
       2.612293   5.587103E-32  -2.992212E-31  -4.099334E-32
       2.666716   6.294182E-32  -3.854949E-31  -4.620395E-32
       2.721138   7.249166E-32  -5.199341E-31  -5.324881E-32
       2.775561   8.609834E-32  -7.466161E-31  -6.329649E-32
       2.829984   1.070079E-31  -1.173222E-30  -7.875140E-32
       2.884407   1.429885E-31  -2.114129E-30  -1.053678E-31
       2.938829   2.166451E-31  -4.656352E-30  -1.598914E-31
       2.993252   3.570616E-31  -1.237140E-30  -2.638668E-31
       3.047675  -3.346976E-31   1.303038E-30   2.486391E-31
       3.102098  -1.981993E-31  -4.496967E-30   1.475756E-31
       3.156521  -1.222736E-31  -1.971835E-30   9.138999E-32
       3.210943  -8.537286E-32  -1.056551E-30   6.412048E-32
       3.265366  -6.394435E-32  -6.523102E-31   4.832022E-32
       3.319789  -4.994467E-32  -4.432246E-31   3.803174E-32
       3.374212  -4.003141E-32  -3.227878E-31   3.078038E-32
       3.428634  -3.258437E-32  -2.480531E-31   2.536752E-32
       3.483057  -2.672469E-32  -1.992278E-31   2.114419E-32
       3.537480  -2.193288E-32  -1.662435E-31   1.772807E-32
       3.591903  -1.787948E-32  -1.435918E-31   1.487829E-32
       3.646325  -1.434198E-32  -1.281031E-31   1.243407E-32
       3.700748  -1.116051E-32  -1.179072E-31   1.028218E-32
       3.755171  -8.212050E-33  -1.119188E-31   8.338311E-33
       3.809594  -5.393992E-33  -1.095802E-31   6.535521E-33
       3.864017  -2.612121E-33  -1.107483E-31   4.816362E-33
       3.918439   2.300483E-34  -1.156829E-31   3.126550E-33
       3.972862   3.243192E-33  -1.251380E-31   1.408741E-33
       4.027285   6.568729E-33  -1.406043E-31  -4.052757E-34
       4.081708   1.040591E-32  -1.648432E-31  -2.406587E-33
       4.136130   1.506192E-32  -2.030695E-31  -4.730719E-33
       4.190553   2.105494E-32  -2.657711E-31  -7.601464E-33
       4.244976   2.935200E-32  -3.762443E-31  -1.143152E-32
       4.299399   4.200007E-32  -5.940609E-31  -1.708914E-32
       4.353821   6.412818E-32  -1.103061E-30  -2.674352E-32
       4.408244   1.112566E-31  -2.514440E-30  -4.695070E-32
       4.462667   1.324711E-31   1.137973E-29  -5.621995E-32
       4.517090  -1.708243E-31  -2.843204E-30   7.150403E-32
       4.571512  -1.009524E-31  -1.566845E-30   4.167536E-32
       4.625935  -6.948863E-32  -7.477600E-31   2.804508E-32
       4.680358  -5.323469E-32  -4.379287E-31   2.081280E-32
       4.734781  -4.335637E-32  -2.967685E-31   1.624066E-32
       4.789204  -3.667201E-32  -2.246179E-31   1.297457E-32
       4.843626  -3.179131E-32  -1.865294E-31   1.041287E-32
       4.898049  -2.800868E-32  -1.685822E-31   8.236942E-33
       4.952472  -2.491789E-32  -1.654080E-31   6.244689E-33
       5.006895  -2.225087E-32  -1.764162E-31   4.275451E-33
       5.061317  -1.979319E-32  -2.055455E-31   2.160093E-33
       5.115740  -1.731643E-32  -2.643589E-31  -3.390100E-34
       5.170163  -1.447563E-32  -3.830797E-31  -3.650250E-33
       5.224586  -1.054611E-32  -6.506036E-31  -8.737898E-33
       5.279008  -3.505260E-33  -1.374947E-30  -1.832507E-32
       5.333431   1.030297E-32  -1.211304E-30  -3.735424E-32
       5.387854  -5.642862E-32   1.823037E-30   4.991386E-32
       5.442277  -4.570297E-32  -1.543053E-30   3.336120E-32
       5.496700  -4.043929E-32  -7.231029E-31   2.231594E-32
       5.551122  -4.173855E-32  -4.712059E-31   1.632714E-32
       5.605545  -5.108973E-32  -4.845964E-31   1.159088E-32
       5.659968  -5.955456E-32   7.472267E-31   8.106216E-33
       5.714391   2.875344E-32  -3.992267E-31   1.843018E-32
       5.768813   1.071573E-32  -2.640035E-31   1.465849E-32
       5.823236   2.965856E-33  -1.505341E-31   1.254451E-32
       5.877659  -6.118501E-34  -1.019020E-31   1.117824E-32
       5.932082  -2.499308E-33  -7.607600E-32   1.017288E-32
       5.986504  -3.562083E-33  -6.024254E-32   9.377611E-33
       6.040927  -4.152603E-33  -4.958754E-32   8.720086E-33
       6.095350  -4.405686E-33  -4.191994E-32   8.160302E-33
       6.149773  -4.279519E-33  -3.602349E-32   7.674297E-33
       6.204196  -4.053778E-33  -3.341814E-32   7.244391E-33
       6.258618  -7.438668E-33  -2.822373E-32   6.837700E-33
       6.313041  -6.862415E-33  -2.562671E-32   6.490327E-33
       6.367464  -6.659290E-33  -2.354727E-32   6.170861E-33
       6.421887  -6.624606E-33  -2.174769E-32   5.875856E-33
       6.476309  -6.680881E-33  -2.020799E-32   5.602188E-33
       6.530732  -6.813275E-33  -1.887401E-32   5.347210E-33
       6.585155  -7.030527E-33  -1.768279E-32   5.108868E-33
       6.639578  -7.357087E-33  -1.655772E-32   4.885755E-33
       6.694000  -7.835715E-33  -1.538781E-32   4.677258E-33
       6.748423  -8.538269E-33  -1.397941E-32   4.483969E-33
       6.802846  -9.590573E-33  -1.193600E-32   4.308687E-33
       6.857269  -1.123113E-32  -8.317820E-33   4.159029E-33
       6.911691  -1.396772E-32  -5.141886E-34   4.054999E-33
       6.966114  -1.907541E-32   2.022527E-32   4.054861E-33
       7.020537  -3.039228E-32   8.321523E-32   4.352979E-33
       7.074960  -2.995318E-32  -8.766287E-31   3.758668E-33
       7.129383   3.084601E-32  -1.060032E-32  -9.733388E-34
       7.183805   1.273594E-32   2.935247E-31  -1.274263E-33
       7.238228   2.627857E-32  -1.055908E-31   5.076659E-33
       7.292651   1.920265E-32  -1.169392E-31   3.818160E-33
       7.347074   1.575409E-32  -6.010529E-32   3.149313E-33
       7.401496   1.408195E-32  -4.121636E-32   2.744073E-33
       7.455919   1.330649E-32  -3.431126E-32   2.433840E-33
       7.510342   1.308916E-32  -3.219381E-32   2.160590E-33
       7.564765   1.328454E-32  -3.257070E-32   1.898657E-33
       7.619187   1.383486E-32  -3.467359E-32   1.633237E-33
       7.673610   1.473362E-32  -3.835107E-32   1.353022E-33
       7.728033   1.601470E-32  -4.381299E-32   1.046826E-33
       7.782456   1.775486E-32  -5.160972E-32   7.012323E-34
       7.836879   2.008844E-32  -6.276445E-32   2.979596E-34
       7.891301   2.324006E-32  -7.911476E-32  -1.902049E-34
       7.945724   2.759186E-32  -1.040878E-31  -8.068947E-34
       8.000147   3.382810E-32  -1.445598E-31  -1.627654E-33
       8.054570   4.327572E-32  -2.158432E-31  -2.795868E-33
       8.108992   5.881941E-32  -3.572676E-31  -4.618515E-33
