 #calculated the component:  1  2  3
 #tolerance:    1.000000E-03
 #broadening:    1.000000E-03Ha
 #scissors shift:    0.000000E+00Ha
 #energy window:    3.764934E+01eV    1.383588E+00Ha
 # Energy(eV) Chi(w) Eta(w) Sigma(w)
 # in esu
 # 
       0.054423  -2.093590E-03   6.047481E-03   1.511528E-03
       0.108846  -4.194727E-03   1.212793E-02   3.028546E-03
       0.163268  -6.311032E-03   1.827473E-02   4.556598E-03
       0.217691  -8.450266E-03   2.452210E-02   6.101331E-03
       0.272114  -1.062041E-02   3.090557E-02   7.668555E-03
       0.326537  -1.282974E-02   3.746242E-02   9.264294E-03
       0.380959  -1.508692E-02   4.423220E-02   1.089485E-02
       0.435382  -1.740107E-02   5.125735E-02   1.256689E-02
       0.489805  -1.978191E-02   5.858375E-02   1.428747E-02
       0.544228  -2.223983E-02   6.626155E-02   1.606418E-02
       0.598650  -2.478602E-02   7.434592E-02   1.790518E-02
       0.653073  -2.743264E-02   8.289806E-02   1.981935E-02
       0.707496  -3.019297E-02   9.198631E-02   2.181638E-02
       0.761919  -3.308158E-02   1.016875E-01   2.390691E-02
       0.816342  -3.611455E-02   1.120886E-01   2.610272E-02
       0.870764  -3.930977E-02   1.232885E-01   2.841688E-02
       0.925187  -4.268717E-02   1.354002E-01   3.086398E-02
       0.979610  -4.626912E-02   1.485539E-01   3.346039E-02
       1.034033  -5.008083E-02   1.629001E-01   3.622459E-02
       1.088455  -5.415084E-02   1.786137E-01   3.917750E-02
       1.142878  -5.851164E-02   1.958993E-01   4.234295E-02
       1.197301  -6.320038E-02   2.149972E-01   4.574821E-02
       1.251724  -6.825976E-02   2.361915E-01   4.942463E-02
       1.306146  -7.373909E-02   2.598198E-01   5.340843E-02
       1.360569  -7.969565E-02   2.862857E-01   5.774171E-02
       1.414992  -8.619628E-02   3.160749E-01   6.247364E-02
       1.469415  -9.331949E-02   3.497757E-01   6.766195E-02
       1.523837  -1.011580E-01   3.881054E-01   7.337491E-02
       1.578260  -1.098219E-01   4.319454E-01   7.969366E-02
       1.632683  -1.194432E-01   4.823868E-01   8.671534E-02
       1.687106  -1.301806E-01   5.407924E-01   9.455710E-02
       1.741529  -1.422272E-01   6.088792E-01   1.033612E-01
       1.795951  -1.558192E-01   6.888321E-01   1.133020E-01
       1.850374  -1.712485E-01   7.834604E-01   1.245948E-01
       1.904797  -1.888789E-01   8.964187E-01   1.375085E-01
       1.959220  -2.091694E-01   1.032521E+00   1.523819E-01
       2.013642  -2.327050E-01   1.198196E+00   1.696473E-01
       2.068065  -2.602413E-01   1.402161E+00   1.898634E-01
       2.122488  -2.927678E-01   1.656436E+00   2.137617E-01
       2.176911  -3.316012E-01   1.977910E+00   2.423160E-01
       2.231333  -3.785240E-01   2.390820E+00   2.768451E-01
       2.285756  -4.359983E-01   2.930780E+00   3.191710E-01
       2.340179  -5.075027E-01   3.651562E+00   3.718683E-01
       2.394602  -5.980805E-01   4.636934E+00   4.386704E-01
       2.449025  -7.152687E-01   6.022199E+00   5.251580E-01
       2.503447  -8.707385E-01   8.035456E+00   6.399736E-01
       2.557870  -1.083346E+00   1.108139E+01   7.970822E-01
       2.612293  -1.385174E+00   1.592406E+01   1.020245E+00
       2.666716  -1.834425E+00   2.412228E+01   1.352575E+00
       2.721138  -2.545739E+00   3.918811E+01   1.878991E+00
       2.775561  -3.770929E+00   7.015061E+01   2.786029E+00
       2.829984  -6.153938E+00   1.449247E+02   4.550715E+00
       2.884407  -1.176249E+01   3.773511E+02   8.704811E+00
       2.938829  -3.029502E+01   1.501658E+03   2.243292E+01
       2.993252  -1.491642E+02   1.236903E+04   1.104905E+02
       3.047675  -1.601608E+02  -1.304260E+04   1.186357E+02
       3.102098  -3.162721E+01  -1.549537E+03   2.341668E+01
       3.156521  -1.210937E+01  -3.745738E+02   8.956501E+00
       3.210943  -6.307853E+00  -1.395796E+02   4.657192E+00
       3.265366  -3.870262E+00  -6.571779E+01   2.849655E+00
       3.319789  -2.629116E+00  -3.568715E+01   1.928166E+00
       3.374212  -1.916428E+00  -2.129042E+01   1.397822E+00
       3.428634  -1.472868E+00  -1.354459E+01   1.066435E+00
       3.483057  -1.181123E+00  -8.998167E+00   8.470026E-01
       3.537480  -9.820883E-01  -6.133869E+00   6.956141E-01
       3.591903  -8.435904E-01  -4.212108E+00   5.882684E-01
       3.646325  -7.471654E-01  -2.840046E+00   5.110638E-01
       3.700748  -6.819440E-01  -1.791361E+00   4.556424E-01
       3.755171  -6.416498E-01  -9.228909E-01   4.169284E-01
       3.809594  -6.231181E-01  -1.315352E-01   3.919687E-01
       3.864017  -6.256678E-01   6.722218E-01   3.793667E-01
       3.918439  -6.510872E-01   1.586354E+00   3.790985E-01
       3.972862  -7.042668E-01   2.744680E+00   3.926718E-01
       4.027285  -7.948240E-01   4.364041E+00   4.237428E-01
       4.081708  -9.406734E-01   6.843392E+00   4.795795E-01
       4.136130  -1.176046E+00   1.100217E+01   5.744184E-01
       4.190553  -1.571068E+00   1.873430E+01   7.377103E-01
       4.244976  -2.286149E+00   3.511423E+01   1.037070E+00
       4.299399  -3.753769E+00   7.683824E+01   1.655013E+00
       4.353821  -7.480183E+00   2.190847E+02   3.227412E+00
       4.408244  -2.163030E+01   1.037538E+03   9.201283E+00
       4.462667  -1.247809E+02   7.033774E+03   5.274973E+01
       4.517090  -4.860436E+01  -3.093560E+03   2.059193E+01
       4.571512  -1.196577E+01  -4.305097E+02   5.127141E+00
       4.625935  -5.122099E+00  -1.201599E+02   2.242329E+00
       4.680358  -2.836289E+00  -4.783116E+01   1.283380E+00
       4.734781  -1.813925E+00  -2.290392E+01   8.599478E-01
       4.789204  -1.273657E+00  -1.194105E+01   6.428667E-01
       4.843626  -9.573762E-01  -6.102573E+00   5.242537E-01
       4.898049  -7.611647E-01  -2.308932E+00   4.619679E-01
       4.952472  -6.382849E-01   8.482287E-01   4.391814E-01
       5.006895  -5.680345E-01   4.359672E+00   4.523324E-01
       5.061317  -5.459189E-01   9.509334E+00   5.095332E-01
       5.115740  -5.853684E-01   1.903095E+01   6.379977E-01
       5.170163  -7.376860E-01   4.090882E+01   9.132545E-01
       5.224586  -1.180750E+00   1.067507E+02   1.578828E+00
       5.279008  -2.744609E+00   4.128262E+02   3.746124E+00
       5.333431  -1.265342E+01   3.309267E+03   1.702125E+01
       5.387854  -1.742642E+01  -4.515129E+03   2.353420E+01
       5.442277  -2.908225E+00  -5.359006E+02   4.552827E+00
       5.496700  -4.269687E-01  -1.181408E+02   1.832810E+00
       5.551122   1.141153E+00  -2.388352E+01   1.159974E+00
       5.605545   4.919498E+00   8.178079E+01   1.304104E+00
       5.659968   3.051483E+01   7.706014E+02   4.600090E+00
       5.714391   1.409168E+01  -3.923551E+02   2.252770E+00
       5.768813   3.145220E+00  -5.635952E+01   6.914322E-01
       5.823236   1.207927E+00  -1.740495E+01   3.796077E-01
       5.877659   5.879719E-01  -7.991690E+00   2.609348E-01
       5.932082   3.202072E-01  -4.527739E+00   1.991855E-01
       5.986504   1.805626E-01  -2.902433E+00   1.611742E-01
       6.040927   9.297026E-02  -2.017297E+00   1.352761E-01
       6.095350   1.530948E-02  -1.499026E+00   1.163427E-01
       6.149773  -1.350969E-01  -1.276925E+00   1.013950E-01
       6.204196  -1.041236E+00  -2.189473E+00   8.503018E-02
       6.258618  -5.144679E-01   8.882020E-03   7.917278E-02
       6.313041  -9.870591E-02  -4.638381E-01   7.423986E-02
       6.367464  -2.473115E-02  -4.320200E-01   6.849828E-02
       6.421887   2.927384E-03  -3.716224E-01   6.339781E-02
       6.476309   2.103304E-02  -3.195364E-01   5.894258E-02
       6.530732   3.869905E-02  -2.805229E-01   5.501221E-02
       6.585155   6.008304E-02  -2.568479E-01   5.146939E-02
       6.639578   8.885082E-02  -2.535679E-01   4.815616E-02
       6.694000   1.301240E-01  -2.830494E-01   4.485592E-02
       6.748423   1.928246E-01  -3.752566E-01   4.120354E-02
       6.802846   2.946745E-01  -6.076431E-01   3.645687E-02
       6.857269   4.757671E-01  -1.207579E+00   2.882461E-02
       6.911691   8.439177E-01  -2.988691E+00   1.306889E-02
       6.966114   1.776782E+00  -9.928374E+00  -3.082021E-02
       7.020537   5.367882E+00  -5.515129E+01  -2.225457E-01
       7.074960   3.096372E+01  -3.215883E+02  -1.715037E+00
       7.129383   1.082834E+01   1.944047E+02  -2.473421E-01
       7.183805   7.975543E+00   4.654981E+02   1.604632E+00
       7.238228   4.626828E+00  -2.871334E+02   1.104160E+00
       7.292651   1.265166E+00  -3.421459E+01   2.494190E-01
       7.347074   5.512822E-01  -8.123531E+00   1.162372E-01
       7.401496   2.646187E-01  -2.700303E+00   7.839501E-02
       7.455919   1.070628E-01  -9.465225E-01   6.449243E-02
       7.510342   8.231832E-04  -1.728166E-01   5.939109E-02
       7.564765  -8.371173E-02   2.831973E-01   5.862000E-02
       7.619187  -1.614188E-01   6.439456E-01   6.068472E-02
       7.673610  -2.422373E-01   1.012971E+00   6.521378E-02
       7.728033  -3.352493E-01   1.465764E+00   7.244646E-02
       7.782456  -4.514201E-01   2.090280E+00   8.316002E-02
       7.836879  -6.068305E-01   3.025257E+00   9.885517E-02
       7.891301  -8.282753E-01   4.527944E+00   1.222735E-01
       7.945724  -1.165070E+00   7.132332E+00   1.586026E-01
       8.000147  -1.717544E+00   1.208257E+01   2.184417E-01
       8.054570  -2.716364E+00   2.273242E+01   3.260669E-01
       8.108992  -4.788955E+00   5.017261E+01   5.471321E-01
