# Phonon density of state (PDOS) (eV) for 3 Q points
# Phonon Energy     PDOS
0.0 7221.11090857
0.000501002004008 7301.6569687
0.00100200400802 7349.03589856
0.00150300601202 7362.66180449
0.00200400801603 7342.41640187
0.00250501002004 7288.65095072
0.00300601202405 7202.17760765
0.00350701402806 7084.25055404
0.00400801603206 6936.53758443
0.00450901803607 6761.08313282
0.00501002004008 6560.26396708
0.00551102204409 6336.73898258
0.0060120240481 6093.39466955
0.0065130260521 5833.28790933
0.00701402805611 5559.58777253
0.00751503006012 5275.51794765
0.00801603206413 4984.3013266
0.00851703406814 4689.10812061
0.00901803607214 4393.00868407
0.00951903807615 4098.93199506
0.0100200400802 3809.63049071
0.0105210420842 3527.65169361
0.0110220440882 3255.31680377
0.0115230460922 2994.70617934
0.0120240480962 2747.65139726
0.0125250501002 2515.73338117
0.0130260521042 2300.2859133
0.0135270541082 2102.40371607
0.0140280561122 1922.95419825
0.0145290581162 1762.59191345
0.0150300601202 1621.77477225
0.0155310621242 1500.78108334
0.0160320641283 1399.72656793
0.0165330661323 1318.58059295
0.0170340681363 1257.18099394
0.0175350701403 1215.24700402
0.0180360721443 1192.38996205
0.0185370741483 1188.12163572
0.0190380761523 1201.86015548
0.0195390781563 1232.93370736
0.0200400801603 1280.58226994
0.0205410821643 1343.95779776
0.0210420841683 1422.1233463
0.0215430861723 1514.05169755
0.0220440881764 1618.62407955
0.0225450901804 1734.62957542
0.0230460921844 1860.76578906
0.0235470941884 1995.64127662
0.0240480961924 2137.78016839
0.0245490981964 2285.62929955
0.0250501002004 2437.56804417
0.0255511022044 2591.92091283
0.0260521042084 2746.97283481
0.0265531062124 2900.98690908
0.0270541082164 3052.2242804
0.0275551102204 3198.96568379
0.0280561122244 3339.53410788
0.0285571142285 3472.31795954
0.0290581162325 3595.79407212
0.0295591182365 3708.54988782
0.0300601202405 3809.30416347
0.0305611222445 3896.9255942
0.0310621242485 3970.44882077
0.0315631262525 4029.08737755
0.0320641282565 4072.24324604
0.0325651302605 4099.51279615
0.0330661322645 4110.68901971
0.0335671342685 4105.7600811
0.0340681362725 4084.90432308
0.0345691382766 4048.48196789
0.0350701402806 3997.02383969
0.0355711422846 3931.21750234
0.0360721442886 3851.89125482
0.0365731462926 3759.99645486
0.0370741482966 3656.58865026
0.0375751503006 3542.80798913
0.0380761523046 3419.85935649
0.0385771543086 3288.99264968
0.0390781563126 3151.48356032
0.0395791583166 3008.61518129
0.0400801603206 2861.66070458
0.0405811623246 2711.86742426
0.0410821643287 2560.44220882
0.0415831663327 2408.53856156
0.0420841683367 2257.24534687
0.0425851703407 2107.57722439
0.0430861723447 1960.46680306
0.0435871743487 1816.7585009
0.0440881763527 1677.20407542
0.0445891783567 1542.45977052
0.0450901803607 1413.08501046
0.0455911823647 1289.54255671
0.0460921843687 1172.2000306
0.0465931863727 1061.33269247
0.0470941883768 957.127356224
0.0475951903808 859.687307594
0.0480961923848 769.038084906
0.0485971943888 685.133973076
0.0490981963928 607.86505585
0.0495991983968 537.064668037
0.0501002004008 472.517089279
0.0506012024048 413.965324083
0.0511022044088 361.118819383
0.0516032064128 313.660980918
0.0521042084168 271.256362871
0.0526052104208 233.557421078
0.0531062124248 200.210738252
0.0536072144289 170.862649187
0.0541082164329 145.164214336
0.0546092184369 122.775510477
0.0551102204409 103.369226919
0.0556112224449 86.6335739455
0.0561122244489 72.2745266835
0.0566132264529 60.0174415724
0.0571142284569 49.6080941081
0.0576152304609 40.8131951661
0.0581162324649 33.4204490996
0.0586172344689 27.2382199995
0.0591182364729 22.0948732424
0.059619238477 17.8378580121
0.060120240481 14.3325932164
0.060621242485 11.4612145154
0.061122244489 9.12123440331
0.061623246493 7.22416083114
0.062124248497 5.6941130547
0.062625250501 4.46646655186
0.063126252505 3.48655222739
0.063627254509 2.70842891524
0.064128256513 2.09374254576
0.064629258517 1.61068036824
0.065130260521 1.23302435828
0.0656312625251 0.939304409214
0.0661322645291 0.712049085546
0.0666332665331 0.53712956074
0.0671342685371 0.403190807749
0.0676352705411 0.30116308471
0.0681362725451 0.223846180717
0.0686372745491 0.165558677144
0.0691382765531 0.121844561846
0.0696392785571 0.0892298355107
0.0701402805611 0.0650222083513
0.0706412825651 0.0471475467614
0.0711422845691 0.0340173482297
0.0716432865731 0.0244221623471
0.0721442885772 0.0174465081676
0.0726452905812 0.0124014429056
0.0731462925852 0.00877149990062
0.0736472945892 0.00617322623058
0.0741482965932 0.00432300796404
0.0746492985972 0.00301227278896
0.0751503006012 0.0020885071422
0.0756513026052 0.00144082118942
0.0761523046092 0.000989044387653
0.0766533066132 0.000675541808394
0.0771543086172 0.000459112027606
0.0776553106212 0.00031046624318
0.0781563126253 0.000208900134032
0.0786573146293 0.000139859203601
0.0791583166333 9.3168866159e-05
0.0796593186373 6.17557589706e-05
0.0801603206413 4.07296346646e-05
0.0806613226453 2.67281870545e-05
0.0811623246493 1.74523533151e-05
0.0816633266533 1.13387087176e-05
0.0821643286573 7.32989810364e-06
0.0826653306613 4.71472826229e-06
0.0831663326653 3.01744571633e-06
0.0836673346693 1.92152498471e-06
0.0841683366733 1.2175199846e-06
0.0846693386774 7.6759015479e-07
0.0851703406814 4.81510417122e-07
0.0856713426854 3.00541707396e-07
0.0861723446894 1.86649303816e-07
0.0866733466934 1.15337456322e-07
0.0871743486974 7.09147463737e-08
0.0876753507014 4.33835175488e-08
0.0881763527054 2.64079590219e-08
0.0886773547094 1.59943515107e-08
0.0891783567134 9.63873464978e-09
0.0896793587174 5.77956133989e-09
0.0901803607214 3.44818914257e-09
0.0906813627255 2.04695609847e-09
0.0911823647295 1.20905799794e-09
0.0916833667335 7.10569962838e-10
0.0921843687375 4.15515958393e-10
0.0926853707415 2.41763138564e-10
0.0931863727455 1.39963683238e-10
0.0936873747495 8.06247348694e-11
0.0941883767535 4.6213065515e-11
0.0946893787575 2.6360728265e-11
0.0951903807615 1.49699357953e-11
0.0956913827655 8.4747086614e-12
0.0961923847695 4.80335021078e-12
0.0966933867735 2.76354407563e-12
0.0971943887776 1.68160604908e-12
0.0976953907816 1.19499685347e-12
0.0981963927856 1.13895516155e-12
0.0986973947896 1.49441431753e-12
0.0991983967936 2.38194418499e-12
0.0996993987976 4.09993342341e-12
0.100200400802 7.21821836839e-12
0.100701402806 1.27543750247e-11
0.10120240481 2.24831605615e-11
0.101703406814 3.94661146033e-11
0.102204408818 6.89472515361e-11
0.102705410822 1.19856443144e-10
0.103206412826 2.07317194847e-10
0.10370741483 3.56805888591e-10
0.104208416834 6.11011531544e-10
0.104709418838 1.04108666757e-09
0.105210420842 1.76499817224e-09
0.105711422846 2.9772923082e-09
0.10621242485 4.99710544822e-09
0.106713426854 8.34517350197e-09
0.107214428858 1.38666656212e-08
0.107715430862 2.29260128664e-08
0.108216432866 3.77141944743e-08
0.10871743487 6.17306651167e-08
0.109218436874 1.00534909688e-07
0.109719438878 1.62911838082e-07
0.110220440882 2.62668631287e-07
0.110721442886 4.21389387836e-07
0.11122244489 6.72633964722e-07
0.111723446894 1.06830142626e-06
0.112224448898 1.68821843787e-06
0.112725450902 2.65450340054e-06
0.113226452906 4.15296000875e-06
0.11372745491 6.4647543683e-06
0.114228456914 1.00130439826e-05
0.114729458918 1.54312119283e-05
0.115230460922 2.36621260932e-05
0.115731462926 3.61016714615e-05
0.11623246493 5.48050618146e-05
0.116733466934 8.27816067149e-05
0.117234468938 0.000124413311083
0.117735470942 0.000186045711286
0.118236472946 0.000276816705811
0.11873747495 0.000409812072309
0.119238476954 0.000603666420654
0.119739478958 0.000884767393795
0.120240480962 0.00129027125031
0.120741482966 0.00187220220806
0.12124248497 0.00270298918585
0.121743486974 0.0038828953594
0.122244488978 0.0055499221413
0.122745490982 0.00789292399658
0.123246492986 0.0111688582667
0.12374749499 0.0157253191902
0.124248496994 0.0220297715029
0.124749498998 0.0307072095199
0.125250501002 0.0425883242639
0.125751503006 0.0587706638475
0.12625250501 0.0806957179761
0.126753507014 0.110245339431
0.127254509018 0.149861422278
0.127755511022 0.202693271013
0.128256513026 0.272777592603
0.12875751503 0.365256492105
0.129258517034 0.486639210965
0.129759519038 0.645113564558
0.130260521042 0.850913051667
0.130761523046 1.11674535412
0.13126252505 1.45828734247
0.131763527054 1.8947506712
0.132264529058 2.4495204993
0.132765531062 3.15086772849
0.133266533066 4.03273233786
0.13376753507 5.13557185389
0.134268537074 6.50726469655
0.134769539078 8.20405308641
0.135270541082 10.2915044298
0.135771543086 12.8454637164
0.13627254509 15.9529626281
0.136773547094 19.713043991
0.137274549098 24.2374532179
0.137775551102 29.6511418385
0.138276553106 36.0925225649
0.13877755511 43.7134110653
0.139278557114 52.6785872773
0.139779559118 63.1649092268
0.140280561122 75.359915485
0.140781563126 89.4598590827
0.14128256513 105.66712632
0.141783567134 124.187008741
0.142284569138 145.223815671
0.142785571142 168.976338063
0.143286573146 195.632701554
0.14378757515 225.364676979
0.144288577154 258.321549226
0.144789579158 294.62367896
0.145290581162 334.355925001
0.145791583166 377.561126262
0.14629258517 424.233869335
0.146793587174 474.31478914
0.147294589178 527.685663622
0.147795591182 584.165567603
0.148296593186 643.50834407
0.14879759519 705.401632329
0.149298597194 769.467661018
0.149799599198 835.265969879
0.150300601202 902.298168155
0.150801603206 970.014770794
0.15130260521 1037.82407834
0.151803607214 1105.10298516
0.152304609218 1171.20951667
0.152805611222 1235.4968131
0.153306613226 1297.32819919
0.15380761523 1356.09290975
0.154308617234 1411.22198406
0.154809619238 1462.20380184
0.155310621242 1508.59871164
0.155811623246 1550.05220254
0.156312625251 1586.30609241
0.156813627255 1617.20725123
0.157314629259 1642.71344542
0.157815631263 1662.89597659
0.158316633267 1677.9388933
0.158817635271 1688.13467238
0.159318637275 1693.87639391
0.159819639279 1695.64656489
0.160320641283 1694.00287566
0.160821643287 1689.5612954
0.161322645291 1682.97702231
0.161823647295 1674.92389604
0.162324649299 1666.07295019
0.162825651303 1657.07082815
0.163326653307 1648.51880345
0.163827655311 1640.95313557
0.164328657315 1634.82745366
0.164829659319 1630.49779462
0.165330661323 1628.21083226
0.165831663327 1628.09572238
0.166332665331 1630.15986093
0.166833667335 1634.28871237
0.167334669339 1640.2497196
0.167835671343 1647.70016084
0.168336673347 1656.19867822
0.168837675351 1665.22007374
0.169338677355 1674.17285533
0.169839679359 1682.4189238
0.170340681363 1689.29472368
0.170841683367 1694.13313993
0.171342685371 1696.28541027
0.171843687375 1695.14233807
0.172344689379 1690.15413371
0.172845691383 1680.84828033
0.173346693387 1666.84490901
0.173847695391 1647.86927513
0.174348697395 1623.76104697
0.174849699399 1594.48024328
0.175350701403 1560.10978388
0.175851703407 1520.85473996
0.176352705411 1477.03848373
0.176853707415 1429.09603559
0.177354709419 1377.56498691
0.177855711423 1323.07443511
0.178356713427 1266.33240309
0.178857715431 1208.11222657
0.179358717435 1149.23838076
0.179859719439 1090.57218476
0.180360721443 1032.99776929
0.180861723447 977.408626401
0.181362725451 924.694981582
0.181863727455 875.732144987
0.182364729459 831.369913753
0.182865731463 792.423017378
0.183366733467 759.662526773
0.183867735471 733.808089678
0.184368737475 715.52081367
0.184869739479 705.396595629
0.185370741483 703.959694493
0.185871743487 711.656362676
0.186372745491 728.848389701
0.186873747495 755.806467138
0.187374749499 792.703353798
0.187875751503 839.60690005
0.188376753507 896.473075292
0.188877755511 963.13922774
0.189378757515 1039.31788501
0.189879759519 1124.59147224
0.190380761523 1218.40837608
0.190881763527 1320.08081407
0.191382765531 1428.78497473
0.191883767535 1543.56387362
0.192384769539 1663.3333213
0.192885771543 1786.89132333
0.193386773547 1912.93112963
0.193887775551 2040.05802663
0.194388777555 2166.8098231
0.194889779559 2291.68082729
0.195390781563 2413.14895455
0.195891783567 2529.70544958
0.196392785571 2639.88656244
0.196893787575 2742.30639088
0.197394789579 2835.68999965
0.197895791583 2918.90585642
0.198396793587 2990.99658775
0.198897795591 3051.20706058
0.199398797595 3099.00883563
0.199899799599 3134.12011808
0.200400801603 3156.52044526
0.200901803607 3166.45949672
0.201402805611 3164.45958242
0.201903807615 3151.31155404
0.202404809619 3128.06408392
0.202905811623 3096.00645818
0.203406813627 3056.64522826
0.203907815631 3011.6752495
0.204408817635 2962.94580151
0.204909819639 2912.4226268
0.205410821643 2862.14683817
0.205911823647 2814.19172773
0.206412825651 2770.61856205
0.206913827655 2733.43246666
0.207414829659 2704.5394914
0.207915831663 2685.70590761
0.208416833667 2678.52072134
0.208917835671 2684.36229662
0.209418837675 2704.36987265
0.209919839679 2739.42063172
0.210420841683 2790.11283345
0.210921843687 2856.75537873
0.211422845691 2939.36400635
0.211923847695 3037.66415879
0.212424849699 3151.10038493
0.212925851703 3278.85197802
0.213426853707 3419.85438231
0.213927855711 3572.82574297
0.214428857715 3736.29782792
0.214929859719 3908.6504195
0.215430861723 4088.14816567
0.215931863727 4272.97879801
0.216432865731 4461.29157384
0.216933867735 4651.23478569
0.217434869739 4840.99120712
0.217935871743 5028.81041169
0.218436873747 5213.03701243
0.218937875752 5392.13401996
0.219438877756 5564.70070649
0.21993987976 5729.48458174
0.220440881764 5885.38732986
0.220941883768 6031.46481123
0.221442885772 6166.92148945
0.221943887776 6291.09988867
0.22244488978 6403.46590727
0.222945891784 6503.5909984
0.223446893788 6591.13236568
0.223947895792 6665.81240385
0.224448897796 6727.39863491
0.2249498998 6775.68534592
0.225450901804 6810.47802721
0.225951903808 6831.58154372
0.226452905812 6838.79275475
0.226953907816 6831.89804102
0.22745490982 6810.675915
0.227955911824 6774.90459752
0.228456913828 6724.37415598
0.228957915832 6658.90253395
0.229458917836 6578.35457239
0.22995991984 6482.66294333
0.230460921844 6371.84979578
0.230961923848 6246.04785916
0.231462925852 6105.51976244
0.231963927856 5950.67440737
0.23246492986 5782.07937584
0.232965931864 5600.46854549
0.233466933868 5406.74432336
0.233967935872 5201.97417034
0.234468937876 4987.38136479
0.23496993988 4764.33022668
0.235470941884 4534.30627983
0.235971943888 4298.89205546
0.236472945892 4059.73942568
0.236973947896 3818.53949139
0.2374749499 3576.99113161
0.237975951904 3336.76934781
0.238476953908 3099.49450961
0.238977955912 2866.70353073
0.239478957916 2639.82388416
0.23997995992 2420.15121047
0.240480961924 2208.83109445
0.240981963928 2006.84539162
0.241482965932 1815.00328997
0.241983967936 1633.93710137
0.24248496994 1464.10260162
0.242985971944 1305.78358437
0.243486973948 1159.10016781
0.243987975952 1024.02029694
0.244488977956 900.373820654
0.24498997996 787.868491031
0.245490981964 686.107229857
0.245991983968 594.606032251
0.246492985972 512.811924272
0.246993987976 440.120456258
0.24749498998 375.892291141
0.247995991984 319.468532065
0.248496993988 270.184521588
0.248997995992 227.381931262
0.249498997996 190.419041939
0.25 158.679188844
# Runtime: 0 seconds (or 0.0 minutes)
