# Phonon density of state (PDOS) (eV) for 1 Q points
# Phonon Energy     PDOS
0.0 4605.71379832
0.000501002004008 4594.16781459
0.00100200400802 4559.7032399
0.00150300601202 4502.83587187
0.00200400801603 4424.41108504
0.00250501002004 4325.58292113
0.00300601202405 4207.78583692
0.00350701402806 4072.70007599
0.00400801603206 3922.21183236
0.00450901803607 3758.36952454
0.00501002004008 3583.33759332
0.00551102204409 3399.34927315
0.0060120240481 3208.65976482
0.0065130260521 3013.50116099
0.00701402805611 2816.04035003
0.00751503006012 2618.34095708
0.00801603206413 2422.33018251
0.00851703406814 2229.7711783
0.00901803607214 2042.2413726
0.00951903807615 1861.11692313
0.0100200400802 1687.56326035
0.0105210420842 1522.53148074
0.0110220440882 1366.7601757
0.0115230460922 1220.78213834
0.0120240480962 1084.93528122
0.0125250501002 959.37702509
0.0130260521042 844.101381401
0.0135270541082 738.957946426
0.0140280561122 643.672051028
0.0145290581162 557.865360753
0.0150300601202 481.076292388
0.0155310621242 412.779699202
0.0160320641283 352.405372574
0.0165330661323 299.355007279
0.0170340681363 253.017376713
0.0175350701403 212.781558706
0.0180360721443 178.048139045
0.0185370741483 148.238396047
0.0190380761523 122.801533808
0.0195390781563 101.220083402
0.0200400801603 83.0136301858
0.0205410821643 67.7410519788
0.0210420841683 55.0014682465
0.0215430861723 44.4341058106
0.0220440881764 35.7172836139
0.0225450901804 28.5667092996
0.0230460921844 22.7332654939
0.0235470941884 18.0004452658
0.0240480961924 14.1815757104
0.0245490981964 11.1169472047
0.0250501002004 8.67094465184
0.0255511022044 6.72925677636
0.0260521042084 5.19622086624
0.0265531062124 3.99234367812
0.0270541082164 3.05202476542
0.0275551102204 2.32149633356
0.0280561122244 1.75698383748
0.0285571142285 1.323083783
0.0290581162325 0.991349385705
0.0295591182365 0.739070644828
0.0300601202405 0.548232754905
0.0305611222445 0.404635350461
0.0310621242485 0.29715461496
0.0315631262525 0.217130560175
0.0320641282565 0.157862596494
0.0325651302605 0.114197697141
0.0330661322645 0.082196867361
0.0335671342685 0.0588671488577
0.0340681362725 0.0419479317892
0.0345691382766 0.0297418459564
0.0350701402806 0.020981913985
0.0355711422846 0.0147279431904
0.0360721442886 0.0102862935485
0.0365731462926 0.00714818104423
0.0370741482966 0.00494256044511
0.0375751503006 0.00340038625692
0.0380761523046 0.00232768568241
0.0385771543086 0.00158540507884
0.0390781563126 0.00107442473913
0.0395791583166 0.000724488747113
0.0400801603206 0.000486079489968
0.0405811623246 0.000324491449495
0.0410821643287 0.000215536239604
0.0415831663327 0.000142449332837
0.0420841683367 9.36760840458e-05
0.0425851703407 6.12968806995e-05
0.0430861723447 3.99138065289e-05
0.0435871743487 2.58684156097e-05
0.0440881763527 1.66955629528e-05
0.0445891783567 1.07445054693e-05
0.0450901803607 6.91786749732e-06
0.0455911823647 4.4932715039e-06
0.0460921843687 3.00279404438e-06
0.0465931863727 2.15293997969e-06
0.0470941883768 1.77331600349e-06
0.0475951903808 1.78622725026e-06
0.0480961923848 2.19248274317e-06
0.0485971943888 3.07114580733e-06
0.0490981963928 4.59311153702e-06
0.0495991983968 7.05050976421e-06
0.0501002004008 1.09062882415e-05
0.0506012024048 1.68712175887e-05
0.0511022044088 2.60193161778e-05
0.0516032064128 3.99577372372e-05
0.0521042084168 6.10740222116e-05
0.0526052104208 9.289298588e-05
0.0531062124248 0.000140588240168
0.0536072144289 0.000211710617423
0.0541082164329 0.00031721896738
0.0546092184369 0.000472929808227
0.0551102204409 0.000701543408966
0.0556112224449 0.00103545791505
0.0561122244489 0.00152065358594
0.0566132264529 0.00222202029573
0.0571142284569 0.0032306181519
0.0576152304609 0.00467350924923
0.0581162324649 0.00672698488398
0.0586172344689 0.00963424450022
0.0591182364729 0.0137288683992
0.059619238477 0.0194657744312
0.060120240481 0.0274617682016
0.060621242485 0.0385482949865
0.061122244489 0.0538395865894
0.061623246493 0.0748200726079
0.062124248497 0.103455694444
0.062625250501 0.142334618373
0.063126252505 0.194843780901
0.063627254509 0.265388696634
0.064128256513 0.359664986231
0.064629258517 0.484991096893
0.065130260521 0.650712632145
0.0656312625251 0.868689506165
0.0661322645291 1.1538776965
0.0666332665331 1.52501757464
0.0671342685371 2.00544051454
0.0676352705411 2.62400456573
0.0681362725451 3.41616826863
0.0686372745491 4.4252090154
0.0691382765531 5.70358855283
0.0696392785571 7.31446312846
0.0701402805611 9.33332926708
0.0706412825651 11.8497881444
0.0711422845691 14.9694019683
0.0716432865731 18.8156047377
0.0721442885772 23.5316173677
0.0726452905812 29.2823037203
0.0731462925852 36.2558899446
0.0736472945892 44.6654552604
0.0741482965932 54.7500885808
0.0746492985972 66.7755929997
0.0751503006012 81.0346101019
0.0756513026052 97.8460293337
0.0761523046092 117.553545407
0.0766533066132 140.523229979
0.0771543086172 167.139993701
0.0776553106212 197.802832069
0.0781563126253 232.918773956
0.0786573146293 272.895485689
0.0791583166333 318.132525937
0.0796593186373 369.011297095
0.0801603206413 425.883796124
0.0806613226453 489.060330542
0.0811623246493 558.796431078
0.0816633266533 635.279259014
0.0821643286573 718.61387005
0.0826653306613 808.809754399
0.0831663326653 905.768120959
0.0836673346693 1009.27042824
0.0841683366733 1118.96868277
0.0846693386774 1234.378024
0.0851703406814 1354.87209076
0.0856713426854 1479.68161717
0.0861723446894 1607.89663422
0.0866733466934 1738.47255906
0.0871743486974 1870.24033851
0.0876753507014 2001.92068029
0.0881763527054 2132.14225983
0.0886773547094 2259.46363728
0.0891783567134 2382.39846608
0.0896793587174 2499.44342704
0.0901803607214 2609.10818904
0.0906813627255 2709.94658441
0.0911823647295 2800.58810206
0.0916833667335 2879.76874835
0.0921843687375 2946.36030902
0.0926853707415 2999.39706788
0.0931863727455 3038.09909867
0.0936873747495 3061.89134554
0.0941883767535 3070.41783968
0.0946893787575 3063.55056089
0.0951903807615 3041.39263583
0.0956913827655 3004.2757612
0.0961923847695 2952.75194193
0.0966933867735 2887.57983188
0.0971943887776 2809.70614956
0.0976953907816 2720.24280501
0.0981963927856 2620.44050987
0.0986973947896 2511.65974523
0.0991983967936 2395.34002683
0.0996993987976 2272.96843385
0.100200400802 2146.04835476
0.100701402806 2016.06935478
0.10120240481 1884.47898719
0.101703406814 1752.65726087
0.102204408818 1621.89434524
0.102705410822 1493.37194753
0.103206412826 1368.14864441
0.10370741483 1247.14929646
0.104208416834 1131.15852715
0.104709418838 1020.81811336
0.105210420842 916.628017028
0.105711422846 818.950690605
0.10621242485 728.018215194
0.106713426854 643.941780134
0.107214428858 566.722986535
0.107715430862 496.266453231
0.108216432866 432.393219652
0.10871743487 374.854473296
0.109218436874 323.345176389
0.109719438878 277.517223266
0.110220440882 236.991823418
0.110721442886 201.370871452
0.11122244489 170.247131305
0.111723446894 143.213125189
0.112224448898 119.868675723
0.112725450902 99.8271009053
0.113226452906 82.7201048973
0.11372745491 68.2014424757
0.114228456914 55.9494613809
0.114729458918 45.6686449696
0.115230460922 37.0902881983
0.115731462926 29.9724439001
0.11623246493 24.0992745948
0.116733466934 19.2799387785
0.117234468938 15.3471308849
0.117735470942 12.1553819368
0.118236472946 9.57921427761
0.11873747495 7.51122952075
0.119238476954 5.86019468186
0.119739478958 4.54917790797
0.120240480962 3.51377271068
0.120741482966 2.70043841418
0.12124248497 2.06497480894
0.121743486974 1.57114081596
0.122244488978 1.18942029325
0.122745490982 0.89593287353
0.123246492986 0.671483783363
0.12374749499 0.500743805785
0.124248496994 0.371548743428
0.124749498998 0.274306748263
0.125250501002 0.201501544103
0.125751503006 0.1472797285
0.12625250501 0.107110867893
0.126753507014 0.0775098784985
0.127254509018 0.055812119641
0.127755511022 0.0399926389843
0.128256513026 0.0285220407172
0.12875751503 0.0202524542178
0.129258517034 0.0143280314236
0.129759519038 0.0101152767171
0.130260521042 0.00714930327069
0.130761523046 0.00509281126631
0.13126252505 0.00370519829636
0.131763527054 0.00281974650075
0.132264529058 0.00232729315913
0.132765531062 0.00216519174935
0.133266533066 0.00231072005012
0.13376753507 0.00277840224714
0.134268537074 0.00362099474906
0.134769539078 0.00493415183141
0.135270541082 0.00686504814871
0.135771543086 0.00962550081711
0.13627254509 0.0135104136074
0.136773547094 0.018922668226
0.137274549098 0.0264059198138
0.137775551102 0.0366871210731
0.138276553106 0.050731005024
0.13877755511 0.069809200588
0.139278557114 0.0955871346272
0.139779559118 0.130232380737
0.140280561122 0.176548635404
0.140781563126 0.238140015798
0.14128256513 0.319610852426
0.141783567134 0.42680655741
0.142284569138 0.567101439197
0.142785571142 0.749739451147
0.143286573146 0.986233739542
0.14378757515 1.29083042205
0.144288577154 1.68104120023
0.144789579158 2.17824810451
0.145290581162 2.80838180387
0.145791583166 3.6026724056
0.14629258517 4.59846845849
0.146793587174 5.84011590896
0.147294589178 7.37988402737
0.147795591182 9.27891984491
0.148296593186 11.6082064883
0.14879759519 14.4494941007
0.149298597194 17.8961649843
0.149799599198 22.0539874581
0.150300601202 27.0417060279
0.150801603206 32.9914092249
0.15130260521 40.0486113508
0.151803607214 48.3719808886
0.152304609218 58.1326470542
0.152805611222 69.5130174146
0.153306613226 82.7050442135
0.15380761523 97.907885469
0.154308617234 115.324919389
0.154809619238 135.160087375
0.155310621242 157.613561837
0.155811623246 182.876760028
0.156312625251 211.126753557
0.156813627255 242.520154453
0.157314629259 277.18659155
0.157815631263 315.221924187
0.158316633267 356.681372311
0.158817635271 401.572771198
0.159318637275 449.850183456
0.159819639279 501.408118832
0.160320641283 556.076621939
0.160821643287 613.617487766
0.161322645291 673.721853639
0.161823647295 736.009393293
0.162324649299 800.029303772
0.162825651303 865.263229319
0.163326653307 931.130209296
0.163827655311 996.993671166
0.164328657315 1062.17041694
0.164829659319 1125.94147519
0.165330661323 1187.56461371
0.165831663327 1246.2882343
0.166332665331 1301.36630378
0.166833667335 1352.07391834
0.167334669339 1397.72305494
0.167835671343 1437.67803573
0.168336673347 1471.37022205
0.168837675351 1498.31146468
0.169338677355 1518.10586605
0.169839679359 1530.45945858
0.170340681363 1535.18746854
0.170841683367 1532.21891441
0.171342685371 1521.59838007
0.171843687375 1503.48490062
0.172344689379 1478.14799996
0.172845691383 1445.96101801
0.173346693387 1407.39195847
0.173847695391 1362.9921707
0.174348697395 1313.38324815
0.174849699399 1259.24257788
0.175350701403 1201.28800997
0.175851703407 1140.26212926
0.176352705411 1076.91660756
0.176853707415 1011.99709029
0.177354709419 946.229031819
0.177855711423 880.304839255
0.178356713427 814.872619584
0.178857715431 750.52675213
0.179358717435 687.800432054
0.179859719439 627.160253684
0.180360721443 569.002828806
0.180861723447 513.65336724
0.181362725451 461.366087774
0.181863727455 412.326278353
0.182364729459 366.653786841
0.182865731463 324.407697884
0.183366733467 285.591937569
0.183867735471 250.161544907
0.184368737475 218.029356635
0.184869739479 189.072867939
0.185370741483 163.1410548
0.185871743487 140.060971899
0.186372745491 119.643971557
0.186873747495 101.691422336
0.187374749499 85.999838995
0.187875751503 72.3653672004
0.188376753507 60.5875955638
0.188877755511 50.4726934054
0.189378757515 41.8358945431
0.189879759519 34.5033651129
0.190380761523 28.3135068669
0.190881763527 23.1177567228
0.191382765531 18.7809488626
0.191883767535 15.1813078388
0.192384769539 12.2101404321
0.192885771543 9.77129098617
0.193386773547 7.78042015013
0.193887775551 6.16416093477
0.194388777555 4.85919920212
0.194889779559 3.81131859093
0.195390781563 2.97444278107
0.195891783567 2.30970120034
0.196392785571 1.78453798571
0.196893787575 1.37187837109
0.197394789579 1.04936176739
0.197895791583 0.798646661307
0.198396793587 0.604789077913
0.198897795591 0.455693689125
0.199398797595 0.341634643781
0.199899799599 0.25484176838
0.200400801603 0.189146857974
0.200901803607 0.139684258998
0.201402805611 0.10263975832
0.201903807615 0.0750418597942
0.202404809619 0.0545897835642
0.202905811623 0.0395129060301
0.203406813627 0.0284568212839
0.203907815631 0.020391708617
0.204408817635 0.0145392050872
0.204909819639 0.010314484419
0.205410821643 0.00728071785135
0.205911823647 0.00511352865368
0.206412825651 0.00357344417675
0.206913827655 0.00248469522778
0.207414829659 0.00171901262072
0.207915831663 0.00118332712593
0.208416833667 0.000810495094545
0.208917835671 0.000552351803966
0.209418837675 0.000374542390818
0.209919839679 0.000252700438552
0.210420841683 0.000169641001776
0.210921843687 0.000113311888257
0.211422845691 7.53077965656e-05
0.211923847695 4.97994126136e-05
0.212424849699 3.27663688179e-05
0.212925851703 2.1451231315e-05
0.213426853707 1.39732024796e-05
0.213927855711 9.05648128685e-06
0.214428857715 5.84040348551e-06
0.214929859719 3.74753782011e-06
0.215430861723 2.39259402022e-06
0.215931863727 1.51988880829e-06
0.216432865731 9.60670460299e-07
0.216933867735 6.04166821777e-07
0.217434869739 3.78058600957e-07
0.217935871743 2.35386303743e-07
0.218436873747 1.45822006981e-07
0.218937875752 8.98844921072e-08
0.219438877756 5.51272440959e-08
0.21993987976 3.36409003546e-08
0.220440881764 2.04262552618e-08
0.220941883768 1.23404135719e-08
0.221442885772 7.41806253474e-09
0.221943887776 4.43681255455e-09
0.22244488978 2.64041072235e-09
0.222945891784 1.56347776691e-09
0.223446893788 9.2115295058e-10
0.223947895792 5.39997315525e-10
0.224448897796 3.14971507969e-10
0.2249498998 1.82797711397e-10
0.225450901804 1.05557732894e-10
0.225951903808 6.06497716008e-11
0.226452905812 3.46727350417e-11
0.226953907816 1.97227217451e-11
0.22745490982 1.11626012171e-11
0.227955911824 6.28613621793e-12
0.228456913828 3.52226462619e-12
0.228957915832 1.9637219303e-12
0.229458917836 1.0893258629e-12
0.22995991984 6.01250506163e-13
0.230460921844 3.30196838485e-13
0.230961923848 1.80430595318e-13
0.231462925852 9.80996073152e-14
0.231963927856 5.3069399249e-14
0.23246492986 2.85654381221e-14
0.232965931864 1.52988019683e-14
0.233466933868 8.15255565392e-15
0.233967935872 4.32264864984e-15
0.234468937876 2.28047815961e-15
0.23496993988 1.19707597087e-15
0.235470941884 6.25226424475e-16
0.235971943888 3.24917237206e-16
0.236472945892 1.68007238846e-16
0.236973947896 8.64376701921e-17
0.2374749499 4.42484361578e-17
0.237975951904 2.25378568267e-17
0.238476953908 1.14221305747e-17
0.238977955912 5.75972092454e-18
0.239478957916 2.88985183796e-18
0.23997995992 1.44267839757e-18
0.240480961924 7.1661071237e-19
0.240981963928 3.5417416508e-19
0.241482965932 1.74168766924e-19
0.241983967936 8.52203848421e-20
0.24248496994 4.14893394577e-20
0.242985971944 2.009783913e-20
0.243486973948 9.68683776661e-21
0.243987975952 4.6455218012e-21
0.244488977956 2.21669935208e-21
0.24498997996 1.05244377021e-21
0.245490981964 4.97176765552e-22
0.245991983968 2.33691310042e-22
0.246492985972 1.09293445466e-22
0.246993987976 5.08587271649e-23
0.24749498998 2.3548143418e-23
0.247995991984 1.08484495332e-23
0.248496993988 4.97277133541e-24
0.248997995992 2.26803170523e-24
0.249498997996 1.029246903e-24
0.25 4.64739762796e-25
# Runtime: 0 seconds (or 0.0 minutes)
